Data_Point,Test_Time(s),Date_Time,Step_Time(s),Step_Index,Cycle_Index,Current(A),Voltage(V),Charge_Capacity(Ah),Discharge_Capacity(Ah),Charge_Energy(Wh),Discharge_Energy(Wh),dV/dt(V/s),Internal_Resistance(Ohm),Is_FC_Data,AC_Impedance(Ohm),ACI_Phase_Angle(Deg)
1,30.000929303631768,2010-08-17 14:30:57,29.937578652564856,1,1,0.0,3.5252370834350586,0.0,0.0,0.0,0.0,3.237724376958795e-05,0.0,0,0,0
2,60.0161334377815,2010-08-17 14:31:27,59.95278281177705,1,1,0.0,3.5252370834350586,0.0,0.0,0.0,0.0,0.0,0.0,0,0,0
3,90.03131649941201,2010-08-17 14:31:57,89.9679658483451,1,1,0.0,3.5252370834350586,0.0,0.0,0.0,0.0,-3.237724376958795e-05,0.0,0,0,0
4,120.04690188375454,2010-08-17 14:32:27,119.98355122767512,1,1,0.0,3.5252370834350586,0.0,0.0,0.0,0.0,0.0,0.0,0,0,0
5,120.0778032544785,2010-08-17 14:32:27,120.01445262847405,1,1,0.0,3.5252370834350586,0.0,0.0,0.0,0.0,0.0,0.0,0,0,0
6,150.09353755173316,2010-08-17 14:32:57,30.01532358686264,2,1,0.5499359965324402,3.639366626739502,0.004586815209162,0.0,0.016596974505981,0.0,0.001003694487735629,0.0,0,0,0
7,180.10859018329182,2010-08-17 14:33:27,60.030376208396305,2,1,0.5501165986061096,3.671581983566284,0.009173651864072,0.0,0.033367332512257,0.0,0.0008094310760498047,0.0,0,0,0
8,210.1239059807409,2010-08-17 14:33:57,90.04569201587033,2,1,0.550297200679779,3.6978073120117188,0.013760387444014,0.0,0.050269838182057,0.0,0.0006475448608398438,0.0,0,0,0
9,240.1390128875702,2010-08-17 14:34:27,120.06079894776212,2,1,0.550297200679779,3.7201476097106934,0.01834717113802,0.0,0.067283174657821,0.0,0.0005504131549969316,0.0,0,0,0
10,270.15433406342385,2010-08-17 14:34:57,150.07612012361577,2,1,0.5501165986061096,3.7397358417510986,0.022933963478835,0.0,0.084392482422577,0.0,0.0004856586456298828,0.0,0,0,0
11,300.16935685060116,2010-08-17 14:35:27,180.0911428757056,2,1,0.5499359965324402,3.7570574283599854,0.027520715584652,0.0,0.101586482862312,0.0,0.00038852691068314016,0.0,0,0,0
12,330.1846705979406,2010-08-17 14:35:57,210.1064566280576,2,1,0.5501165986061096,3.7719509601593018,0.032107543251694,0.0,0.118855255851701,0.0,0.0003237724304199219,0.0,0,0,0
13,360.19972915426564,2010-08-17 14:36:27,240.12151517937016,2,1,0.5501165986061096,3.7821497917175293,0.036694301731148,0.0,0.136182454599472,0.0,0.0001295089750783518,0.0,0,0,0
14,390.2150702998901,2010-08-17 14:36:57,270.13685633501956,2,1,0.550297200679779,3.786682605743408,0.041281172866148,0.0,0.153542776224424,0.0,6.47544875391759e-05,0.0,0,0,0
15,420.23012513193305,2010-08-17 14:37:27,300.1519111670625,2,1,0.5501165986061096,3.788301467895508,0.045868020562947,0.0,0.170916110413445,0.0,3.237724376958795e-05,0.0,0,0,0
16,450.2454538415632,2010-08-17 14:37:57,330.1672398917301,2,1,0.550297200679779,3.7895965576171875,0.050454879157861,0.0,0.188295478480043,0.0,6.47544875391759e-05,0.0,0,0,0
17,480.260496423074,2010-08-17 14:38:27,360.1822824582035,2,1,0.5501165986061096,3.7904059886932373,0.05504163425164,0.0,0.205678788538343,0.0,0.0,0.0,0,0,0
18,510.27582725298856,2010-08-17 14:38:57,390.1976132831056,2,1,0.5501165986061096,3.791215419769287,0.059628486644952,0.0,0.223066462755081,0.0,3.237724376958795e-05,0.0,0,0,0
19,540.2908951826748,2010-08-17 14:39:27,420.2126812127919,2,1,0.550297200679779,3.792186737060547,0.064215318301733,0.0,0.240457943483547,0.0,6.47544875391759e-05,0.0,0,0,0
20,570.3060775124815,2010-08-17 14:39:57,450.22786354259847,2,1,0.5501165986061096,3.7931580543518066,0.06880206574579,0.0,0.257853699514457,0.0,3.237724376958795e-05,0.0,0,0,0
21,600.3212695615114,2010-08-17 14:40:27,480.2430555916284,2,1,0.5499359965324402,3.7941293716430664,0.073388807956902,0.0,0.275254410074082,0.0,3.237724376958795e-05,0.0,0,0,0
22,630.3364685478311,2010-08-17 14:40:57,510.2582545729357,2,1,0.5501165986061096,3.795748233795166,0.077975567122386,0.0,0.292660874570818,0.0,3.237724376958795e-05,0.0,0,0,0
23,660.3516712634454,2010-08-17 14:41:27,540.2734573136123,2,1,0.5501165986061096,3.7972052097320557,0.082562366154459,0.0,0.310073758930396,0.0,6.47544875391759e-05,0.0,0,0,0
24,690.3668460193757,2010-08-17 14:41:57,570.2886320444801,2,1,0.5501165986061096,3.7985002994537354,0.087149147961777,0.0,0.327493539549633,0.0,3.237724376958795e-05,0.0,0,0,0
25,720.3820328052882,2010-08-17 14:42:27,600.3038188303926,2,1,0.5504778623580933,3.800442934036255,0.091735972291176,0.0,0.34492107697984,0.0,6.47544875391759e-05,0.0,0,0,0
26,750.4003431911731,2010-08-17 14:42:57,630.3221292664025,2,1,0.5501165986061096,3.8020617961883545,0.096323292643051,0.0,0.362358663729354,0.0,0.0,0.0,0,0,0
27,780.4124664468256,2010-08-17 14:43:27,660.33425247193,2,1,0.5501165986061096,3.804166316986084,0.100909655176797,0.0,0.379801278103623,0.0,6.47544875391759e-05,0.0,0,0,0
28,810.4277323900224,2010-08-17 14:43:57,690.3495184251519,2,1,0.550297200679779,3.8062708377838135,0.105496546929428,0.0,0.397255102665585,0.0,6.47544875391759e-05,0.0,0,0,0
29,840.4421306005626,2010-08-17 14:44:27,720.3639166206545,2,1,0.5501165986061096,3.808537244796753,0.110080982614458,0.0,0.414709328480815,0.0,9.713172767078504e-05,0.0,0,0,0
30,870.4423656270902,2010-08-17 14:44:57,750.364151657207,2,1,0.5499359965324402,3.8106417655944824,0.114667883494282,0.0,0.432183273401467,0.0,3.237724376958795e-05,0.0,0,0,0
31,900.4578190726006,2010-08-17 14:45:27,780.3796051027174,2,1,0.5501165986061096,3.813231945037842,0.119254871169966,0.0,0.449668479545406,0.0,6.47544875391759e-05,0.0,0,0,0
32,930.4727504920613,2010-08-17 14:45:57,810.3945365221784,2,1,0.5501165986061096,3.815660238265991,0.123841676893817,0.0,0.467164812467844,0.0,3.237724376958795e-05,0.0,0,0,0
33,960.4879358293636,2010-08-17 14:46:27,840.4097218594807,2,1,0.5499359965324402,3.8184123039245605,0.128428506626769,0.0,0.484673499090094,0.0,3.237724376958795e-05,0.0,0,0,0
34,990.5031415775359,2010-08-17 14:46:57,870.4249276026405,2,1,0.5501165986061096,3.82132625579834,0.133015311721504,0.0,0.502194955412057,0.0,6.47544875391759e-05,0.0,0,0,0
35,1020.5183691851888,2010-08-17 14:47:27,900.4401552403683,2,1,0.550297200679779,3.824563980102539,0.137602144847844,0.0,0.519729968300048,0.0,0.00016188621520996094,0.0,0,0,0
36,1050.5335096205818,2010-08-17 14:47:57,930.4552956506988,2,1,0.5499359965324402,3.8274779319763184,0.142188939475394,0.0,0.537278832081535,0.0,6.47544875391759e-05,0.0,0,0,0
37,1080.54881570382,2010-08-17 14:48:27,960.4706017389494,2,1,0.550297200679779,3.8307156562805176,0.146775754577384,0.0,0.554842045048105,0.0,6.47544875391759e-05,0.0,0,0,0
38,1110.563880761348,2010-08-17 14:48:57,990.485666791465,2,1,0.5501165986061096,3.8337912559509277,0.151362548716411,0.0,0.572419678998301,0.0,6.47544875391759e-05,0.0,0,0,0
39,1140.5790833065375,2010-08-17 14:49:27,1020.500869331642,2,1,0.5501165986061096,3.836867094039917,0.155949324260433,0.0,0.590011748781174,0.0,6.47544875391759e-05,0.0,0,0,0
40,1170.5943823572486,2010-08-17 14:49:57,1050.516168392378,2,1,0.5501165986061096,3.840104818344116,0.16053615701455,0.0,0.60761847171544,0.0,6.47544875391759e-05,0.0,0,0,0
41,1200.6094635750528,2010-08-17 14:50:27,1080.5312496252195,2,1,0.5499359965324402,3.8430187702178955,0.165122938049092,0.0,0.625239289644912,0.0,0.0,0.0,0,0,0
42,1230.6246543809846,2010-08-17 14:50:57,1110.5464404311515,2,1,0.5501165986061096,3.8460946083068848,0.169709789344927,0.0,0.642874365799177,0.0,6.47544875391759e-05,0.0,0,0,0
43,1260.6398334075584,2010-08-17 14:51:27,1140.5616194376755,2,1,0.550297200679779,3.849170446395874,0.174296676230851,0.0,0.660523273374946,0.0,9.713172767078504e-05,0.0,0,0,0
44,1290.6550073213898,2010-08-17 14:51:57,1170.5767933515067,2,1,0.5499359965324402,3.8519225120544434,0.178883523410597,0.0,0.678185349424688,0.0,0.0,0.0,0,0,0
45,1320.670321625116,2010-08-17 14:52:27,1200.5921076602456,2,1,0.550297200679779,3.8549983501434326,0.183470394352488,0.0,0.695860457595902,0.0,9.713172767078504e-05,0.0,0,0,0
46,1350.685448797453,2010-08-17 14:52:57,1230.60723484762,2,1,0.5501165986061096,3.857588529586792,0.188057255862815,0.0,0.713548356930488,0.0,6.47544875391759e-05,0.0,0,0,0
47,1380.70074743714,2010-08-17 14:53:27,1260.6225334822943,2,1,0.550297200679779,3.8603405952453613,0.19264410738576,0.0,0.731248758600245,0.0,6.47544875391759e-05,0.0,0,0,0
48,1410.715789492339,2010-08-17 14:53:57,1290.6375755224558,2,1,0.5501165986061096,3.8629307746887207,0.197230943167478,0.0,0.74896156893474,0.0,6.47544875391759e-05,0.0,0,0,0
49,1440.7309686442252,2010-08-17 14:54:27,1320.6527546743423,2,1,0.550297200679779,3.8658447265625,0.201817766579794,0.0,0.766686657106302,0.0,9.713172767078504e-05,0.0,0,0,0
50,1470.7461241872709,2010-08-17 14:54:57,1350.667910217388,2,1,0.550297200679779,3.8684349060058594,0.206404555914258,0.0,0.784423901046639,0.0,6.47544875391759e-05,0.0,0,0,0
51,1500.761432496056,2010-08-17 14:55:27,1380.6832185261728,2,1,0.5501165986061096,3.8710250854492188,0.210991379753329,0.0,0.802173567309711,0.0,6.47544875391759e-05,0.0,0,0,0
52,1530.776513638673,2010-08-17 14:55:57,1410.6982996687898,2,1,0.5501165986061096,3.873777151107788,0.215578211697743,0.0,0.819935448362568,0.0,6.47544875391759e-05,0.0,0,0,0
53,1560.791691843198,2010-08-17 14:56:28,1440.7134778683026,2,1,0.5499359965324402,3.8760435581207275,0.220165026303081,0.0,0.837709119002008,0.0,3.237724376958795e-05,0.0,0,0,0
54,1590.8071654238915,2010-08-17 14:56:58,1470.7289514690458,2,1,0.5499359965324402,3.878633737564087,0.224751928563125,0.0,0.85549471778214,0.0,6.47544875391759e-05,0.0,0,0,0
55,1620.822260541338,2010-08-17 14:57:28,1500.7440465764676,2,1,0.550297200679779,3.8810620307922363,0.229338769789517,0.0,0.873291024176681,0.0,6.47544875391759e-05,0.0,0,0,0
56,1650.8372738498915,2010-08-17 14:57:58,1530.7590598749962,2,1,0.5501165986061096,3.883166551589966,0.233925612741362,0.0,0.891097566669599,0.0,6.47544875391759e-05,0.0,0,0,0
57,1680.8524221198104,2010-08-17 14:58:28,1560.77420815494,2,1,0.5501165986061096,3.8849472999572754,0.23851243897053,0.0,0.908913347377111,0.0,3.237724376958795e-05,0.0,0,0,0
58,1710.8676093668723,2010-08-17 14:58:58,1590.7893953969892,2,1,0.5499359965324402,3.886728048324585,0.243099270647133,0.0,0.926737509776256,0.0,3.237724376958795e-05,0.0,0,0,0
59,1740.8828068293944,2010-08-17 14:59:28,1620.8045928595116,2,1,0.5501165986061096,3.8883469104766846,0.247686176462288,0.0,0.944569414121868,0.0,3.237724376958795e-05,0.0,0,0,0
60,1770.897990492524,2010-08-17 14:59:58,1650.8197765176285,2,1,0.5501165986061096,3.8896420001983643,0.25227304875415,0.0,0.962407808615249,0.0,3.237724376958795e-05,0.0,0,0,0
61,1800.9132864004025,2010-08-17 15:00:28,1680.8350724355316,2,1,0.550297200679779,3.890937089920044,0.256859908490036,0.0,0.980251926671255,0.0,3.237724376958795e-05,0.0,0,0,0
62,1830.928369628216,2010-08-17 15:00:58,1710.8501556733704,2,1,0.5501165986061096,3.8919084072113037,0.261446777394863,0.0,0.998101396621607,0.0,3.237724376958795e-05,0.0,0,0,0
63,1860.9438214697288,2010-08-17 15:01:28,1740.8656075048582,2,1,0.550297200679779,3.8930416107177734,0.26603368395456,0.0,1.015955802009705,0.0,3.237724376958795e-05,0.0,0,0,0
64,1890.9588432493947,2010-08-17 15:01:58,1770.880629279512,2,1,0.550297200679779,3.894012928009033,0.270620514931765,0.0,1.033814389124242,0.0,3.237724376958795e-05,0.0,0,0,0
65,1920.973899424786,2010-08-17 15:02:28,1800.8956854799656,2,1,0.5501165986061096,3.894660472869873,0.275207471154163,0.0,1.051677647471321,0.0,0.0,0.0,0,0,0
66,1950.98921527236,2010-08-17 15:02:58,1830.9110013074896,2,1,0.5501165986061096,3.895469903945923,0.279794429933712,0.0,1.069544203213437,0.0,0.0,0.0,0,0,0
67,1981.004279452702,2010-08-17 15:03:28,1860.926065477806,2,1,0.5501165986061096,3.8962793350219727,0.284381218967219,0.0,1.087414017758113,0.0,0.0,0.0,0,0,0
68,2011.0194484793528,2010-08-17 15:03:58,1890.9412345094695,2,1,0.550297200679779,3.8972506523132324,0.288968099087149,0.0,1.105287816433303,0.0,6.47544875391759e-05,0.0,0,0,0
69,2041.0347674446973,2010-08-17 15:04:28,1920.9565534998765,2,1,0.5501165986061096,3.8977363109588623,0.293554954112945,0.0,1.123164879650813,0.0,-3.237724376958795e-05,0.0,0,0,0
70,2071.0498591887363,2010-08-17 15:04:58,1950.971645248928,2,1,0.5501165986061096,3.898545742034912,0.298141830290084,0.0,1.141045398231363,0.0,3.237724376958795e-05,0.0,0,0,0
71,2101.065025037467,2010-08-17 15:05:28,1980.9868110725963,2,1,0.5501165986061096,3.899355173110962,0.302728721625994,0.0,1.158929240905863,0.0,3.237724376958795e-05,0.0,0,0,0
72,2131.0801873173027,2010-08-17 15:05:58,2011.0019733424072,2,1,0.550297200679779,3.9000027179718018,0.307315666777465,0.0,1.176816510540398,0.0,3.237724376958795e-05,0.0,0,0,0
73,2161.0953872860714,2010-08-17 15:06:28,2041.0171733111756,2,1,0.550297200679779,3.9006502628326416,0.311902549783052,0.0,1.194706555515452,0.0,0.0,0.0,0,0,0
74,2191.110698211377,2010-08-17 15:06:58,2071.0324842465066,2,1,0.5501165986061096,3.9012978076934814,0.316489350248355,0.0,1.212599424032662,0.0,3.237724376958795e-05,0.0,0,0,0
75,2221.1257526323957,2010-08-17 15:07:28,2101.0475386625126,2,1,0.5501165986061096,3.9019453525543213,0.32107625454941,0.0,1.230495756336802,0.0,0.0,0.0,0,0,0
76,2251.140930205347,2010-08-17 15:07:58,2131.062716240476,2,1,0.5499359965324402,3.902592897415161,0.325663154499792,0.0,1.248395125927003,0.0,3.237724376958795e-05,0.0,0,0,0
77,2281.1561452266305,2010-08-17 15:08:28,2161.0779312517348,2,1,0.5501165986061096,3.903402328491211,0.330250049152027,0.0,1.266297470806218,0.0,3.237724376958795e-05,0.0,0,0,0
78,2311.171292990288,2010-08-17 15:08:58,2191.093079025417,2,1,0.5501165986061096,3.903887987136841,0.334836843816184,0.0,1.284202462269303,0.0,3.237724376958795e-05,0.0,0,0,0
79,2341.1866229630664,2010-08-17 15:09:28,2221.108409013233,2,1,0.5501165986061096,3.9045355319976807,0.339423765191587,0.0,1.302111060989201,0.0,0.0,0.0,0,0,0
80,2371.2016721209675,2010-08-17 15:09:58,2251.1234581460717,2,1,0.5501165986061096,3.9051830768585205,0.344010654907385,0.0,1.320022586048109,0.0,0.0,0.0,0,0,0
81,2401.216848315483,2010-08-17 15:10:28,2281.1386343506124,2,1,0.550297200679779,3.9061543941497803,0.348597606517186,0.0,1.337937331335686,0.0,6.47544875391759e-05,0.0,0,0,0
82,2431.232171235684,2010-08-17 15:10:58,2311.153957270814,2,1,0.5501165986061096,3.9064781665802,0.353184479253761,0.0,1.355855005354102,0.0,3.237724376958795e-05,0.0,0,0,0
83,2461.247229987496,2010-08-17 15:11:28,2341.169016022626,2,1,0.5499359965324402,3.90712571144104,0.357771378106507,0.0,1.373775989957383,0.0,0.0,0.0,0,0,0
84,2491.2624602467577,2010-08-17 15:11:58,2371.1842462818868,2,1,0.5501165986061096,3.90793514251709,0.36235828968915,0.0,1.391700223030616,0.0,0.0,0.0,0,0,0
85,2521.277609263538,2010-08-17 15:12:28,2401.1993952986672,2,1,0.5499359965324402,3.9085826873779297,0.366945150955687,0.0,1.409627614027543,0.0,-3.237724376958795e-05,0.0,0,0,0
86,2551.2927670722306,2010-08-17 15:12:58,2431.2145531073597,2,1,0.5501165986061096,3.9095540046691895,0.371532033574699,0.0,1.427558514079476,0.0,0.0,0.0,0,0,0
87,2581.3079840283367,2010-08-17 15:13:28,2461.229770053441,2,1,0.5501165986061096,3.9103634357452393,0.37611887999463,0.0,1.445492739834938,0.0,3.237724376958795e-05,0.0,0,0,0
88,2611.323316356986,2010-08-17 15:13:58,2491.245102392116,2,1,0.550297200679779,3.911172866821289,0.380705867170207,0.0,1.463430914067941,0.0,3.237724376958795e-05,0.0,0,0,0
89,2641.3383355552187,2010-08-17 15:14:28,2521.2601215853356,2,1,0.5501165986061096,3.911820411682129,0.385292683963127,0.0,1.481372068316288,0.0,3.237724376958795e-05,0.0,0,0,0
90,2671.3536219092857,2010-08-17 15:14:58,2551.275407964465,2,1,0.550297200679779,3.9126298427581787,0.389879594988506,0.0,1.49931730034973,0.0,6.47544875391759e-05,0.0,0,0,0
91,2701.371508503953,2010-08-17 15:15:28,2581.293294569157,2,1,0.550297200679779,3.9136011600494385,0.394466867357197,0.0,1.517267640112621,0.0,3.237724376958795e-05,0.0,0,0,0
92,2731.3838777125957,2010-08-17 15:15:58,2611.3056637377003,2,1,0.5501165986061096,3.914248466491699,0.399053353341705,0.0,1.535218722005407,0.0,3.237724376958795e-05,0.0,0,0,0
93,2761.399081831708,2010-08-17 15:16:28,2641.3208678668375,2,1,0.550297200679779,3.915057897567749,0.403640302258255,0.0,1.553175561498771,0.0,0.0,0.0,0,0,0
94,2791.414234507608,2010-08-17 15:16:58,2671.336020542737,2,1,0.5501165986061096,3.916029214859009,0.408227167802827,0.0,1.571135866446117,0.0,0.0,0.0,0,0,0
95,2821.429574796096,2010-08-17 15:17:28,2701.351360831225,2,1,0.550297200679779,3.9170005321502686,0.412814067232215,0.0,1.589100427855062,0.0,3.237724376958795e-05,0.0,0,0,0
96,2851.4446095531057,2010-08-17 15:17:58,2731.3663955832226,2,1,0.550297200679779,3.9179718494415283,0.417400937587475,0.0,1.607069093458972,0.0,3.237724376958795e-05,0.0,0,0,0
97,2881.4598137925177,2010-08-17 15:18:28,2761.381599822635,2,1,0.5501165986061096,3.918781280517578,0.421987810766332,0.0,1.625041962840012,0.0,3.237724376958795e-05,0.0,0,0,0
98,2911.4749957062877,2010-08-17 15:18:58,2791.396781761467,2,1,0.5501165986061096,3.919752597808838,0.426574700173276,0.0,1.643019318145237,0.0,0.0,0.0,0,0,0
99,2941.4901675098595,2010-08-17 15:19:28,2821.4119535650393,2,1,0.550297200679779,3.9207239151000977,0.431161658508883,0.0,1.661001390213718,0.0,0.0,0.0,0,0,0
100,2971.505334561589,2010-08-17 15:19:58,2851.4271205917057,2,1,0.5501165986061096,3.9216952323913574,0.435748591397065,0.0,1.678987822217978,0.0,0.0,0.0,0,0,0
101,3001.520530871237,2010-08-17 15:20:28,2881.442316901354,2,1,0.550297200679779,3.922828435897827,0.440335439177682,0.0,1.696978546951753,0.0,6.47544875391759e-05,0.0,0,0,0
102,3031.535708103339,2010-08-17 15:20:58,2911.457494128443,2,1,0.5501165986061096,3.923637866973877,0.444922343182526,0.0,1.714974176446814,0.0,0.0,0.0,0,0,0
103,3061.550910047029,2010-08-17 15:21:28,2941.4726960821586,2,1,0.550297200679779,3.9249329566955566,0.449509210560419,0.0,1.732974534173337,0.0,3.237724376958795e-05,0.0,0,0,0
104,3091.566077188983,2010-08-17 15:21:58,2971.4878632191,2,1,0.550297200679779,3.9259042739868164,0.454096133278212,0.0,1.750980087401295,0.0,0.0,0.0,0,0,0
105,3121.581298140046,2010-08-17 15:22:28,3001.5030841852,2,1,0.5501165986061096,3.926875591278076,0.458683083234677,0.0,1.768990604034856,0.0,0.0,0.0,0,0,0
106,3151.59644776835,2010-08-17 15:22:58,3031.5182338034797,2,1,0.5501165986061096,3.928170680999756,0.463270008503212,0.0,1.787006246286352,0.0,3.237724376958795e-05,0.0,0,0,0
107,3181.61164321585,2010-08-17 15:23:28,3061.533429240955,2,1,0.5501165986061096,3.9291419982910156,0.467856875684149,0.0,1.805026860038312,0.0,-3.237724376958795e-05,0.0,0,0,0
108,3211.626814578323,2010-08-17 15:23:58,3091.548600613452,2,1,0.550297200679779,3.9305989742279053,0.472443750979331,0.0,1.823052886663527,0.0,6.47544875391759e-05,0.0,0,0,0
109,3241.6420091285863,2010-08-17 15:24:28,3121.563795153691,2,1,0.5501165986061096,3.931570291519165,0.477030679188016,0.0,1.841084494842469,0.0,0.0,0.0,0,0,0
110,3271.6571911626556,2010-08-17 15:24:58,3151.5789772128223,2,1,0.5501165986061096,3.9330272674560547,0.481617596980873,0.0,1.859121634578963,0.0,6.47544875391759e-05,0.0,0,0,0
111,3301.6723818683377,2010-08-17 15:25:28,3181.5941678984545,2,1,0.5501165986061096,3.9341604709625244,0.486204490196142,0.0,1.877164282550061,0.0,6.47544875391759e-05,0.0,0,0,0
112,3331.6877017158804,2010-08-17 15:25:58,3211.6094877510104,2,1,0.5501165986061096,3.935455560684204,0.490791394809944,0.0,1.895212751875,0.0,3.237724376958795e-05,0.0,0,0,0
113,3361.702731244861,2010-08-17 15:26:28,3241.6245172749777,2,1,0.550297200679779,3.936750650405884,0.495378348296044,0.0,1.91326722545,0.0,6.47544875391759e-05,0.0,0,0,0
114,3391.7179234392524,2010-08-17 15:26:58,3271.639709464357,2,1,0.5501165986061096,3.9380457401275635,0.499965238767662,0.0,1.931327491137252,0.0,3.237724376958795e-05,0.0,0,0,0
115,3421.7332518681833,2010-08-17 15:27:28,3301.6550379133378,2,1,0.5501165986061096,3.939340829849243,0.50455215813123,0.0,1.949394000405341,0.0,3.237724376958795e-05,0.0,0,0,0
116,3451.7482990712124,2010-08-17 15:27:58,3331.670085096317,2,1,0.5501165986061096,3.940635919570923,0.50913901998813,0.0,1.967466552763121,0.0,0.0,0.0,0,0,0
117,3481.7636030642416,2010-08-17 15:28:29,3361.685389089346,2,1,0.5499359965324402,3.9420928955078125,0.513725994838805,0.0,1.985545886966207,0.0,3.237724376958795e-05,0.0,0,0,0
118,3511.7788655087184,2010-08-17 15:28:59,3391.7006515388352,2,1,0.5501165986061096,3.943549871444702,0.518312919267442,0.0,2.003631511599299,0.0,3.237724376958795e-05,0.0,0,0,0
119,3541.7939956133637,2010-08-17 15:29:29,3421.7157816685435,2,1,0.5501165986061096,3.945006847381592,0.52289984424314,0.0,2.021723732673784,0.0,3.237724376958795e-05,0.0,0,0,0
120,3571.8090415181573,2010-08-17 15:29:59,3451.7308275733367,2,1,0.5501165986061096,3.9464638233184814,0.527486734679913,0.0,2.039822552590023,0.0,3.237724376958795e-05,0.0,0,0,0
121,3601.824230835379,2010-08-17 15:30:29,3481.7460168654957,2,1,0.550297200679779,3.948082685470581,0.532073655777447,0.0,2.057928203962595,0.0,6.47544875391759e-05,0.0,0,0,0
122,3631.839524698159,2010-08-17 15:30:59,3511.761310723264,2,1,0.5501165986061096,3.9495396614074707,0.536660619757206,0.0,2.076041017725564,0.0,6.47544875391759e-05,0.0,0,0,0
123,3661.8548486208592,2010-08-17 15:31:29,3541.7766346660137,2,1,0.5501165986061096,3.9509966373443604,0.541247503163911,0.0,2.094160495905435,0.0,3.237724376958795e-05,0.0,0,0,0
124,3691.869759073063,2010-08-17 15:31:59,3571.7915450981677,2,1,0.550297200679779,3.95277738571167,0.545834424814654,0.0,2.112287247817335,0.0,6.47544875391759e-05,0.0,0,0,0
125,3721.884945272514,2010-08-17 15:32:29,3601.8067313076435,2,1,0.550297200679779,3.9542343616485596,0.550421344037329,0.0,2.130421175273274,0.0,3.237724376958795e-05,0.0,0,0,0
126,3751.9001439681097,2010-08-17 15:32:59,3631.821930023289,2,1,0.5501165986061096,3.9555294513702393,0.555008277617051,0.0,2.148562432932343,0.0,-3.237724376958795e-05,0.0,0,0,0
127,3781.9154742917626,2010-08-17 15:33:29,3661.837260321879,2,1,0.550297200679779,3.957472085952759,0.559595212529679,0.0,2.166711083055748,0.0,9.713172767078504e-05,0.0,0,0,0
128,3811.930620225859,2010-08-17 15:33:59,3691.852406260989,2,1,0.5501165986061096,3.9590909481048584,0.56418214923665,0.0,2.184867206016572,0.0,6.47544875391759e-05,0.0,0,0,0
129,3841.9456840001894,2010-08-17 15:34:29,3721.8674700353185,2,1,0.5501165986061096,3.960709810256958,0.568769030431944,0.0,2.203030655366568,0.0,3.237724376958795e-05,0.0,0,0,0
130,3871.9608601195177,2010-08-17 15:34:59,3751.882646149634,2,1,0.550297200679779,3.9624905586242676,0.573356027386707,0.0,2.221202260875777,0.0,6.47544875391759e-05,0.0,0,0,0
131,3901.9760557274167,2010-08-17 15:35:29,3781.897841752522,2,1,0.5501165986061096,3.964109420776367,0.577942966022206,0.0,2.23938132556705,0.0,6.47544875391759e-05,0.0,0,0,0
132,3931.99122556108,2010-08-17 15:35:59,3811.9130115911967,2,1,0.5501165986061096,3.965728282928467,0.582529909317896,0.0,2.257568261682592,0.0,3.237724376958795e-05,0.0,0,0,0
133,3962.0064513090974,2010-08-17 15:36:29,3841.9282373592646,2,1,0.5499359965324402,3.9675090312957764,0.587116850611821,0.0,2.27576316306939,0.0,3.237724376958795e-05,0.0,0,0,0
134,3992.021669854163,2010-08-17 15:36:59,3871.9434559394185,2,1,0.5501165986061096,3.969289779663086,0.591703866338447,0.0,2.293966337379529,0.0,6.47544875391759e-05,0.0,0,0,0
135,4022.036793126782,2010-08-17 15:37:29,3901.9585791568993,2,1,0.5499359965324402,3.9709086418151855,0.596290813183871,0.0,2.312177355577387,0.0,3.237724376958795e-05,0.0,0,0,0
136,4052.0520873003375,2010-08-17 15:37:59,3931.9738733254426,2,1,0.550297200679779,3.972851276397705,0.600877831558897,0.0,2.33039695838443,0.0,6.47544875391759e-05,0.0,0,0,0
137,4082.0671441073023,2010-08-17 15:38:29,3961.9889301574694,2,1,0.5501165986061096,3.9746320247650146,0.605464808031644,0.0,2.348624745470469,0.0,0.0,0.0,0,0,0
138,4112.082365223778,2010-08-17 15:38:59,3992.0041512589073,2,1,0.550297200679779,3.976736545562744,0.610051811384501,0.0,2.366861109203279,0.0,6.47544875391759e-05,0.0,0,0,0
139,4142.097516370867,2010-08-17 15:39:29,4022.0193023959714,2,1,0.5501165986061096,3.978193521499634,0.614638825701255,0.0,2.385105707207793,0.0,6.47544875391759e-05,0.0,0,0,0
140,4172.112711096568,2010-08-17 15:39:59,4052.0344971316977,2,1,0.5499359965324402,3.9802980422973633,0.619225674871191,0.0,2.40335859052838,0.0,3.237724376958795e-05,0.0,0,0,0
141,4202.127887817395,2010-08-17 15:40:29,4082.0496738425,2,1,0.550297200679779,3.982240676879883,0.623812619319378,0.0,2.421620533757385,0.0,6.47544875391759e-05,0.0,0,0,0
142,4232.14305962598,2010-08-17 15:40:59,4112.064845656097,2,1,0.5501165986061096,3.9840214252471924,0.628399521862672,0.0,2.43989100627056,0.0,3.237724376958795e-05,0.0,0,0,0
143,4262.158261880444,2010-08-17 15:41:29,4142.080047910562,2,1,0.5499359965324402,3.985964059829712,0.632986379637198,0.0,2.458169950394837,0.0,6.47544875391759e-05,0.0,0,0,0
144,4292.173425774303,2010-08-17 15:41:59,4172.0952117994075,2,1,0.5501165986061096,3.9879066944122314,0.637573248564293,0.0,2.476457642657074,0.0,6.47544875391759e-05,0.0,0,0,0
145,4322.188606680562,2010-08-17 15:42:29,4202.11039271068,2,1,0.5501165986061096,3.989687442779541,0.642160153211687,0.0,2.494753988726549,0.0,3.237724376958795e-05,0.0,0,0,0
146,4352.203785261024,2010-08-17 15:42:59,4232.125571301166,2,1,0.5499359965324402,3.9914681911468506,0.646746986886408,0.0,2.513058623058861,0.0,0.0,0.0,0,0,0
147,4382.219149073141,2010-08-17 15:43:29,4262.140935123308,2,1,0.5501165986061096,3.99357271194458,0.651333853593665,0.0,2.531371855721684,0.0,6.47544875391759e-05,0.0,0,0,0
148,4412.23416629645,2010-08-17 15:43:59,4292.155952346618,2,1,0.5501165986061096,3.9951913356781006,0.655920696578713,0.0,2.549693353592508,0.0,3.237724376958795e-05,0.0,0,0,0
149,4442.249331724132,2010-08-17 15:44:29,4322.171117754249,2,1,0.5501165986061096,3.99697208404541,0.660507572533636,0.0,2.568023332830476,0.0,0.0,0.0,0,0,0
150,4472.2645204248165,2010-08-17 15:44:59,4352.1863064599465,2,1,0.550297200679779,3.9989147186279297,0.665094458602891,0.0,2.586361552803476,0.0,9.713172767078504e-05,0.0,0,0,0
151,4502.279710097925,2010-08-17 15:45:29,4382.201496128042,2,1,0.5501165986061096,4.000695705413818,0.669681310886534,0.0,2.60470785269267,0.0,6.47544875391759e-05,0.0,0,0,0
152,4532.294886683416,2010-08-17 15:45:59,4412.216672713532,2,1,0.5501165986061096,4.002476215362549,0.67426814853475,0.0,2.623062274012576,0.0,9.70840483205393e-05,0.0,0,0,0
153,4562.310074060802,2010-08-17 15:46:29,4442.231860085906,2,1,0.5501165986061096,4.0042572021484375,0.678855020924433,0.0,2.64142497428964,0.0,3.24249267578125e-05,0.0,0,0,0
154,4592.325412489656,2010-08-17 15:46:59,4472.2471985147595,2,1,0.5499359965324402,4.005876064300537,0.683441948001295,0.0,2.659795993772947,0.0,3.24249267578125e-05,0.0,0,0,0
155,4622.341441880599,2010-08-17 15:47:29,4502.263227935778,2,1,0.5499359965324402,4.007656574249268,0.688028898725275,0.0,2.678175240985088,0.0,3.23295607813634e-05,0.0,0,0,0
156,4652.341525840622,2010-08-17 15:47:59,4532.263311905826,2,1,0.5501165986061096,4.009437561035156,0.692613523270503,0.0,2.696553326518366,0.0,0.0,0.0,0,0,0
157,4682.355217690695,2010-08-17 15:48:29,4562.277003745874,2,1,0.5501165986061096,4.011380195617676,0.697200204062735,0.0,2.714947864107307,0.0,6.47544875391759e-05,0.0,0,0,0
158,4712.370358196263,2010-08-17 15:48:59,4592.292144236404,2,1,0.550297200679779,4.013322830200195,0.701787058244604,0.0,2.73335132756138,0.0,6.47544875391759e-05,0.0,0,0,0
159,4742.38569538703,2010-08-17 15:49:29,4622.307481442211,2,1,0.550297200679779,4.015103340148926,0.706373978623375,0.0,2.751763434611104,0.0,6.47544875391759e-05,0.0,0,0,0
160,4772.400898699131,2010-08-17 15:49:59,4652.32268473426,2,1,0.5501165986061096,4.016722202301025,0.710960805917488,0.0,2.770183618247651,0.0,3.23295607813634e-05,0.0,0,0,0
161,4802.416035650842,2010-08-17 15:50:29,4682.337821675946,2,1,0.550297200679779,4.018826961517334,0.715547680661941,0.0,2.788612582153214,0.0,6.47544875391759e-05,0.0,0,0,0
162,4832.431087675889,2010-08-17 15:50:59,4712.352873711018,2,1,0.550297200679779,4.0206074714660645,0.720134543710484,0.0,2.807050034121014,0.0,3.23295607813634e-05,0.0,0,0,0
163,4862.446263133568,2010-08-17 15:51:29,4742.368049158673,2,1,0.5499359965324402,4.022388458251953,0.724721423684568,0.0,2.82549639057552,0.0,3.24249267578125e-05,0.0,0,0,0
164,4892.46158404376,2010-08-17 15:51:59,4772.383370068864,2,1,0.5501165986061096,4.024331092834473,0.729308319177322,0.0,2.843951682164429,0.0,3.24249267578125e-05,0.0,0,0,0
165,4922.4766281290185,2010-08-17 15:52:29,4802.3984141591345,2,1,0.5501165986061096,4.026435375213623,0.733895124198674,0.0,2.862415477565359,0.0,6.47544875391759e-05,0.0,0,0,0
166,4952.491835516275,2010-08-17 15:52:59,4832.413621566443,2,1,0.550297200679779,4.028378009796143,0.738481956917391,0.0,2.880888454361254,0.0,3.23295607813634e-05,0.0,0,0,0
167,4982.507000332433,2010-08-17 15:53:29,4862.428786367563,2,1,0.5499359965324402,4.030320644378662,0.74306887979617,0.0,2.899370935469492,0.0,3.23295607813634e-05,0.0,0,0,0
168,5012.522191840113,2010-08-17 15:53:59,4892.443977865219,2,1,0.550297200679779,4.032425403594971,0.747655673320942,0.0,2.91786216820223,0.0,9.71794142969884e-05,0.0,0,0,0
169,5042.53736439556,2010-08-17 15:54:29,4922.459150420664,2,1,0.550297200679779,4.034529685974121,0.752242495995324,0.0,2.93636292075729,0.0,6.47544875391759e-05,0.0,0,0,0
170,5072.552545081268,2010-08-17 15:54:59,4952.474331111385,2,1,0.5501165986061096,4.036472320556641,0.756829354689546,0.0,2.95487323749424,0.0,3.24249267578125e-05,0.0,0,0,0
171,5102.567836342566,2010-08-17 15:55:29,4982.489622518045,2,1,0.5501165986061096,4.038576602935791,0.761416226906507,0.0,2.973393268624895,0.0,3.23295607813634e-05,0.0,0,0,0
172,5132.583069654435,2010-08-17 15:55:59,5012.50485567954,2,1,0.5501165986061096,4.0408430099487305,0.766003178256391,0.0,2.991923304461719,0.0,6.47544875391759e-05,0.0,0,0,0
173,5162.598139594131,2010-08-17 15:56:29,5042.519925629261,2,1,0.5501165986061096,4.042947769165039,0.770589983779137,0.0,3.010462575454948,0.0,6.47544875391759e-05,0.0,0,0,0
174,5192.613282801432,2010-08-17 15:56:59,5072.535068826537,2,1,0.550297200679779,4.0452141761779785,0.775176864247351,0.0,3.029012167023161,0.0,6.47544875391759e-05,0.0,0,0,0
175,5222.628459146323,2010-08-17 15:57:29,5102.5502451764405,2,1,0.5501165986061096,4.047318458557129,0.779763796549946,0.0,3.047572041025693,0.0,6.47544875391759e-05,0.0,0,0,0
176,5252.643647205408,2010-08-17 15:57:59,5132.565433230513,2,1,0.5499359965324402,4.049584865570068,0.784350701829286,0.0,3.066142017187814,0.0,6.47544875391759e-05,0.0,0,0,0
177,5282.658828121692,2010-08-17 15:58:29,5162.580614146797,2,1,0.5501165986061096,4.051851272583008,0.788937602736183,0.0,3.084722278070775,0.0,9.70840483205393e-05,0.0,0,0,0
178,5312.674005228481,2010-08-17 15:58:59,5192.595791253586,2,1,0.5501165986061096,4.054117679595947,0.793524480079803,0.0,3.103312874771376,0.0,6.47544875391759e-05,0.0,0,0,0
179,5342.6892168412705,2010-08-17 15:59:29,5222.6110028713865,2,1,0.5501165986061096,4.056384086608887,0.798111460439285,0.0,3.121914520378344,0.0,3.23295607813634e-05,0.0,0,0,0
180,5372.704739624592,2010-08-17 15:59:59,5252.626525669746,2,1,0.5499359965324402,4.058812618255615,0.802698495038795,0.0,3.140527074448503,0.0,9.71794142969884e-05,0.0,0,0,0
181,5402.719556112608,2010-08-17 16:00:29,5282.641342137712,2,1,0.5501165986061096,4.061079025268555,0.807285337019217,0.0,3.159149519944607,0.0,6.47544875391759e-05,0.0,0,0,0
182,5432.73473835219,2010-08-17 16:01:00,5312.656524377294,2,1,0.5501165986061096,4.063669204711914,0.81187224672615,0.0,3.177782956800124,0.0,9.71794142969884e-05,0.0,0,0,0
183,5462.750185351634,2010-08-17 16:01:30,5342.671971376739,2,1,0.550297200679779,4.0659356117248535,0.816459187783581,0.0,3.196427608927548,0.0,6.47544875391759e-05,0.0,0,0,0
184,5492.765249496888,2010-08-17 16:02:00,5372.6870355470555,2,1,0.5501165986061096,4.068363666534424,0.821046082204567,0.0,3.21508321328954,0.0,6.47544875391759e-05,0.0,0,0,0
185,5522.780407250443,2010-08-17 16:02:30,5402.702193305623,2,1,0.5499359965324402,4.070792198181152,0.825633038997344,0.0,3.233750387026225,0.0,3.24249267578125e-05,0.0,0,0,0
186,5552.795458759205,2010-08-17 16:03:00,5432.717244794333,2,1,0.5501165986061096,4.073382377624512,0.83021995002464,0.0,3.252428652658183,0.0,6.47544875391759e-05,0.0,0,0,0
187,5582.810667439684,2010-08-17 16:03:30,5462.732453489852,2,1,0.550297200679779,4.075972557067871,0.83480678378458,0.0,3.27111816525393,0.0,6.47544875391759e-05,0.0,0,0,0
188,5612.8261671003775,2010-08-17 16:04:00,5492.747953150544,2,1,0.5501165986061096,4.078400611877441,0.839393718711495,0.0,3.28981969670717,0.0,6.47544875391759e-05,0.0,0,0,0
189,5642.841010831292,2010-08-17 16:04:30,5522.762796861408,2,1,0.5504778623580933,4.080990791320801,0.84398060311128,0.0,3.308532817172265,0.0,6.47544875391759e-05,0.0,0,0,0
190,5672.856198238753,2010-08-17 16:05:00,5552.777984268871,2,1,0.5501165986061096,4.08358097076416,0.848567563002512,0.0,3.327258080108754,0.0,9.70840483205393e-05,0.0,0,0,0
191,5702.871371205224,2010-08-17 16:05:30,5582.79315723534,2,1,0.5499359965324402,4.0861711502075195,0.853154536508675,0.0,3.345995549784169,0.0,6.47544875391759e-05,0.0,0,0,0
192,5732.88669216554,2010-08-17 16:06:00,5612.808478200669,2,1,0.550297200679779,4.089085102081299,0.857741436086337,0.0,3.364744871776245,0.0,9.70840483205393e-05,0.0,0,0,0
193,5762.901730331045,2010-08-17 16:06:30,5642.823516366175,2,1,0.550297200679779,4.091675281524658,0.862328304990289,0.0,3.383506474686331,0.0,6.47544875391759e-05,0.0,0,0,0
194,5792.916944490179,2010-08-17 16:07:00,5672.838730525309,2,1,0.5501165986061096,4.094265460968018,0.86691522321094,0.0,3.402280694590706,0.0,3.23295607813634e-05,0.0,0,0,0
195,5822.932098148529,2010-08-17 16:07:30,5702.853884173633,2,1,0.5504778623580933,4.097179412841797,0.871502106676439,0.0,3.421067434283098,0.0,6.47544875391759e-05,0.0,0,0,0
196,5852.9474165023485,2010-08-17 16:08:00,5732.869202537478,2,1,0.5499359965324402,4.099931716918945,0.876089036159917,0.0,3.439867115383141,0.0,6.47544875391759e-05,0.0,0,0,0
197,5882.962478116295,2010-08-17 16:08:30,5762.884264166461,2,1,0.5501165986061096,4.102845668792725,0.880675961341937,0.0,3.458679654124108,0.0,0.0001295089750783518,0.0,0,0,0
198,5912.977644862261,2010-08-17 16:09:00,5792.899430887365,2,1,0.5497553944587708,4.105597496032715,0.88526291141324,0.0,3.477505476785809,0.0,6.47544875391759e-05,0.0,0,0,0
199,5942.992949110927,2010-08-17 16:09:30,5822.914735146056,2,1,0.5501165986061096,4.108511447906494,0.889849835792102,0.0,3.496344442589094,0.0,6.47544875391759e-05,0.0,0,0,0
200,5973.008021556869,2010-08-17 16:10:00,5852.929807586986,2,1,0.5501165986061096,4.111425399780273,0.894436729616131,0.0,3.515196667825554,0.0,0.0001295089750783518,0.0,0,0,0
201,6003.023217555743,2010-08-17 16:10:30,5882.94500358586,2,1,0.550297200679779,4.114501476287842,0.899023618775774,0.0,3.534062324398373,0.0,6.47544875391759e-05,0.0,0,0,0
202,6033.038361845743,2010-08-17 16:11:00,5912.9601479009225,2,1,0.550297200679779,4.117577075958252,0.903610490235202,0.0,3.552941597415305,0.0,9.71794142969884e-05,0.0,0,0,0
203,6063.053553854673,2010-08-17 16:11:30,5942.97533990484,2,1,0.5501165986061096,4.120491027832031,0.908197363100777,0.0,3.571834600550317,0.0,9.71794142969884e-05,0.0,0,0,0
204,6093.068868729823,2010-08-17 16:12:00,5972.990654754927,2,1,0.550297200679779,4.123566627502441,0.91278431628261,0.0,3.590741895302747,0.0,6.47544875391759e-05,0.0,0,0,0
205,6123.083927837522,2010-08-17 16:12:30,6003.005713862627,2,1,0.550297200679779,4.126804351806641,0.917371107941095,0.0,3.609662534405175,0.0,0.0001295089750783518,0.0,0,0,0
206,6153.09911652317,2010-08-17 16:13:00,6033.020902548274,2,1,0.5499359965324402,4.129556655883789,0.921958097049279,0.0,3.628598164260588,0.0,6.47544875391759e-05,0.0,0,0,0
207,6183.114275985985,2010-08-17 16:13:30,6063.036062001064,2,1,0.5501165986061096,4.132956027984619,0.926545049032017,0.0,3.647547995438118,0.0,9.70840483205393e-05,0.0,0,0,0
208,6213.129483704067,2010-08-17 16:14:00,6093.051269759246,2,1,0.550297200679779,4.1360321044921875,0.931131901635043,0.0,3.666511853996301,0.0,6.47544875391759e-05,0.0,0,0,0
209,6243.144629252202,2010-08-17 16:14:30,6123.066415287331,2,1,0.5501165986061096,4.139269828796387,0.935718769108195,0.0,3.68549048075006,0.0,9.71794142969884e-05,0.0,0,0,0
210,6273.159855822269,2010-08-17 16:15:00,6153.081641877448,2,1,0.5501165986061096,4.142507553100586,0.940305532036764,0.0,3.704483483575507,0.0,9.71794142969884e-05,0.0,0,0,0
211,6303.175001435567,2010-08-17 16:15:30,6183.096787475709,2,1,0.5501165986061096,4.145745277404785,0.944892398412165,0.0,3.723492065434665,0.0,9.71794142969884e-05,0.0,0,0,0
212,6333.190338626335,2010-08-17 16:16:00,6213.112124661464,2,1,0.550297200679779,4.149306774139404,0.949479316881747,0.0,3.742516177860824,0.0,0.0001295089750783518,0.0,0,0,0
213,6363.2053766113895,2010-08-17 16:16:30,6243.127162661556,2,1,0.5501165986061096,4.1525444984436035,0.954066198806277,0.0,3.761555446963644,0.0,9.71794142969884e-05,0.0,0,0,0
214,6393.220715837229,2010-08-17 16:17:00,6273.142501907447,2,1,0.5501165986061096,4.155782222747803,0.958653150296496,0.0,3.780610336918488,0.0,6.47544875391759e-05,0.0,0,0,0
215,6423.235756614243,2010-08-17 16:17:30,6303.157542664409,2,1,0.5501165986061096,4.159181594848633,0.963240017208742,0.0,3.799680471163774,0.0,6.47544875391759e-05,0.0,0,0,0
216,6453.250925470469,2010-08-17 16:18:00,6333.1727114855485,2,1,0.5501165986061096,4.162581443786621,0.967826891534456,0.0,3.81876631899865,0.0,6.47544875391759e-05,0.0,0,0,0
217,6483.266091414437,2010-08-17 16:18:30,6363.187877439542,2,1,0.550297200679779,4.166304588317871,0.972413733858295,0.0,3.837867791227454,0.0,0.0001295089750783518,0.0,0,0,0
218,6513.281300586142,2010-08-17 16:19:00,6393.203086636308,2,1,0.550297200679779,4.16954231262207,0.977000576487076,0.0,3.856985221269318,0.0,9.70840483205393e-05,0.0,0,0,0
219,6543.296465557686,2010-08-17 16:19:30,6423.218251582791,2,1,0.5501165986061096,4.1731038093566895,0.981587505773688,0.0,3.876119123168737,0.0,9.70840483205393e-05,0.0,0,0,0
220,6573.314452983656,2010-08-17 16:20:00,6453.236239063898,2,1,0.5501165986061096,4.176665306091309,0.986174781547772,0.0,3.895270676608464,0.0,9.70840483205393e-05,0.0,0,0,0
221,6603.326868663118,2010-08-17 16:20:30,6483.248654718298,2,1,0.5499359965324402,4.180226802825928,0.990761269495665,0.0,3.914435287206964,0.0,9.70840483205393e-05,0.0,0,0,0
222,6633.342163513361,2010-08-17 16:21:00,6513.263949538465,2,1,0.5501165986061096,4.183950424194336,0.995348156499673,0.0,3.933618048363431,0.0,0.0001295089750783518,0.0,0,0,0
223,6663.357304795865,2010-08-17 16:21:30,6543.279090820969,2,1,0.5501165986061096,4.187511920928955,0.999935234703465,0.0,3.952818216342942,0.0,6.47544875391759e-05,0.0,0,0,0
224,6693.372507967615,2010-08-17 16:22:00,6573.294293987708,2,1,0.550297200679779,4.191397190093994,1.004522888489191,0.0,3.972037614129838,0.0,0.0001295089750783518,0.0,0,0,0
225,6723.38755019324,2010-08-17 16:22:30,6603.309336223357,2,1,0.5504778623580933,4.194958209991455,1.009110506095123,0.0,3.991273796186286,0.0,0.00012941360182594508,0.0,0,0,0
226,6753.4027320468595,2010-08-17 16:23:00,6633.324518102038,2,1,0.5501165986061096,4.198681831359863,1.013698136074387,0.0,4.010527053019259,0.0,6.47544875391759e-05,0.0,0,0,0
227,6763.15258989758,2010-08-17 16:23:10,6643.074375927697,2,1,0.5504778623580933,4.200138568878174,1.015188317439182,0.0,4.016784744965775,0.0,0.00016183852858375758,0.0,0,0,0
228,6793.168177394071,2010-08-17 16:23:40,30.01519167309294,3,1,0.0,4.120167255401611,1.015188317439182,0.0,4.016784744965775,0.0,-0.00042085646418854594,0.0,0,0,0
229,6823.183368200002,2010-08-17 16:24:10,60.030382519124586,3,1,0.0,4.109968662261963,1.015188317439182,0.0,4.016784744965775,0.0,-0.0002590179501567036,0.0,0,0,0
230,6853.198692654026,2010-08-17 16:24:40,90.04570696312348,3,1,0.0,4.104140758514404,1.015188317439182,0.0,4.016784744965775,0.0,-0.0001295089750783518,0.0,0,0,0
231,6883.166889852428,2010-08-17 16:25:10,120.01390498858694,3,1,0.0,4.100255489349365,1.015188317439182,0.0,4.016784744965775,0.0,-0.0001295089750783518,0.0,0,0,0
232,6883.167537283459,2010-08-17 16:25:10,2.751858478e-06,4,1,0.9888165593147278,4.199653148651123,1.015188318195038,0.0,4.016784748140109,0.0,0.0,0.0,0,0,0
233,6884.354926041594,2010-08-17 16:25:11,1.187391464881705,4,1,0.938245952129364,4.199814796447754,1.015504018399102,0.0,4.018110591986292,0.0,3.23295607813634e-05,0.0,0,0,0
234,6886.901764682129,2010-08-17 16:25:14,3.734230115441562,4,1,0.8878559470176697,4.199653148651123,1.016148799376689,0.0,4.020818480694268,0.0,0.0,0.0,0,0,0
235,6890.526732016099,2010-08-17 16:25:18,7.359197469462353,4,1,0.8376466035842896,4.199653148651123,1.017016462594951,0.0,4.024462403479785,0.0,-3.23295607813634e-05,0.0,0,0,0
236,6895.198527137017,2010-08-17 16:25:22,12.0309925903791,4,1,0.7874372005462646,4.199653148651123,1.018069822440131,0.0,4.028886215018876,0.0,-3.23295607813634e-05,0.0,0,0,0
237,6901.151569019092,2010-08-17 16:25:28,17.98403446242944,4,1,0.737408459186554,4.199653148651123,1.019329095491784,0.0,4.034174814688634,0.0,0.0,0.0,0,0,0
238,6908.7295662949955,2010-08-17 16:25:36,25.562031743344953,4,1,0.6873796582221985,4.199814796447754,1.020826422950472,0.0,4.040463194360299,0.0,0.0,0.0,0,0,0
239,6918.776318121855,2010-08-17 16:25:46,35.60878356519325,4,1,0.6371703147888184,4.199653148651123,1.022671489498931,0.0,4.048211990515146,0.0,-3.23295607813634e-05,0.0,0,0,0
240,6932.7917235045015,2010-08-17 16:26:00,49.62418895285172,4,1,0.5871415138244629,4.199814796447754,1.025049528609151,0.0,4.058199110377386,0.0,3.23295607813634e-05,0.0,0,0,0
241,6953.7601591479515,2010-08-17 16:26:21,70.59262459630155,4,1,0.536932110786438,4.199814796447754,1.028313724140696,0.0,4.07190786163543,0.0,0.0,0.0,0,0,0
242,6988.462779455486,2010-08-17 16:26:56,105.29524490884975,4,1,0.4869033694267273,4.199814796447754,1.03322936840788,0.0,4.092552213410571,0.0,3.23295607813634e-05,0.0,0,0,0
243,7048.11841269911,2010-08-17 16:27:55,164.95087812740985,4,1,0.4368745982646942,4.199653148651123,1.040855727677222,0.0,4.124581267129551,0.0,0.0,0.0,0,0,0
244,7139.38247869783,2010-08-17 16:29:26,256.2149441562047,4,1,0.38684582710266113,4.199814796447754,1.05127081340773,0.0,4.168322460301652,0.0,0.0,0.0,0,0,0
245,7256.021357668109,2010-08-17 16:31:23,372.853823091397,4,1,0.3366364538669586,4.199814796447754,1.062977247378811,0.0,4.217487052945367,0.0,0.0,0.0,0,0,0
246,7398.331771271629,2010-08-17 16:33:45,515.164236709954,4,1,0.28660768270492554,4.199814796447754,1.075284246619717,0.0,4.269173885774491,0.0,-3.24249267578125e-05,0.0,0,0,0
247,7571.313630685475,2010-08-17 16:36:38,688.1460961187884,4,1,0.23657891154289246,4.199814796447754,1.087828764503344,0.0,4.321858219832689,0.0,0.0,0.0,0,0,0
248,7789.310417348776,2010-08-17 16:40:16,906.1428827971251,4,1,0.18636952340602875,4.199653148651123,1.100595515904155,0.0,4.375475881938177,0.0,-6.47544875391759e-05,0.0,0,0,0
249,8084.665599681665,2010-08-17 16:45:12,1201.4980651099663,4,1,0.13634076714515686,4.199653148651123,1.113761011262537,0.0,4.43076821896157,0.0,-3.23295607813634e-05,0.0,0,0,0
250,8542.89303897344,2010-08-17 16:52:50,1659.7255043967273,4,1,0.08631198853254318,4.199653148651123,1.127712131310163,0.0,4.489359910662363,0.0,-3.23295607813634e-05,0.0,0,0,0
251,9134.665570139961,2010-08-17 17:02:42,2251.4980355883126,4,1,0.049828916788101196,4.199653148651123,1.138644081280051,0.0,4.535271753809255,0.0,-3.23295607813634e-05,0.0,0,0,0
252,9164.681358532525,2010-08-17 17:03:12,30.01516061067584,5,1,0.0,4.192368507385254,1.138644081280051,0.0,4.535271753809255,0.0,-3.23295607813634e-05,0.0,0,0,0
253,9194.680932235831,2010-08-17 17:03:42,60.014734339045006,5,1,0.0,4.191235065460205,1.138644081280051,0.0,4.535271753809255,0.0,0.0,0.0,0,0,0
254,9194.869178610592,2010-08-17 17:03:42,0.187713590024368,6,1,-1.9243103452026844e-05,4.191235065460205,1.138644081280051,1.003387e-09,4.535271753809255,4.205429e-09,0.0,0.09400942176580429,0,0,0
255,9199.697020082027,2010-08-17 17:03:47,5.015554966223511,6,1,0.0008838032954372466,4.191235065460205,1.138645028456104,1.169227e-09,4.535275723661054,4.900503e-09,0.0,0.09400942176580429,0,0,0
256,9229.712831931736,2010-08-17 17:04:17,30.01518982348314,7,1,-1.099568486213684,4.024654865264893,1.138645028456104,0.009168321426027,4.535275723661054,0.037083286519575,-0.0008741378551349044,0.09400942176580429,0,0,0
257,9259.731066639006,2010-08-17 17:04:47,60.03342456082853,7,1,-1.099568486213684,3.9997241497039795,1.138645028456104,0.018337527517814,4.535275723661054,0.073863621377797,-0.000582838081754744,0.09400942176580429,0,0,0
258,9289.743195283088,2010-08-17 17:05:17,90.04555318486074,7,1,-1.099568486213684,3.9832119941711426,1.138645028456104,0.02750547055031,4.535275723661054,0.110453107926599,-0.00035614968510344625,0.09400942176580429,0,0,0
259,9319.758494268637,2010-08-17 17:05:47,120.06085216038434,7,1,-1.0997490882873535,3.9702610969543457,1.138645028456104,0.036674522729089,4.535275723661054,0.146913450954516,-0.0003237724304199219,0.09400942176580429,0,0,0
260,9349.77358519564,2010-08-17 17:06:17,150.07594311746195,7,1,-1.099568486213684,3.9594147205352783,1.138645028456104,0.045842920365097,4.535275723661054,0.18326434837586,-0.0002913951757363975,0.09400942176580429,0,0,0
261,9379.788905990545,2010-08-17 17:06:47,180.09126389231622,7,1,-1.099568486213684,3.9501872062683105,1.138645028456104,0.055011125276173,4.535275723661054,0.219521850073686,-0.00019426345534157008,0.09400942176580429,0,0,0
262,9409.803938832782,2010-08-17 17:07:17,210.10629671450383,7,1,-1.099568486213684,3.9411215782165527,1.138645028456104,0.064179263669898,4.535275723661054,0.255694618906233,-0.0002590179501567036,0.09400942176580429,0,0,0
263,9439.819114475924,2010-08-17 17:07:47,240.12147238772016,7,1,-1.099568486213684,3.9327034950256348,1.138645028456104,0.073347433363507,4.535275723661054,0.29178861051198,-0.00022664069547317922,0.09400942176580429,0,0,0
264,9469.83432998843,2010-08-17 17:08:17,270.13668789521574,7,1,-1.099568486213684,3.9247710704803467,1.138645028456104,0.082515682668924,4.535275723661054,0.32780746253162,-0.00019426345534157008,0.09400942176580429,0,0,0
265,9499.849473666907,2010-08-17 17:08:47,300.15183155865384,7,1,-1.0997490882873535,3.9168386459350586,1.138645028456104,0.091683973440903,4.535275723661054,0.36375362358291,-0.00019426345534157008,0.09400942176580429,0,0,0
266,9529.86476469763,2010-08-17 17:09:17,330.16712260942654,7,1,-1.0997490882873535,3.9090683460235596,1.138645028456104,0.100852289463781,4.535275723661054,0.39962906241906,-0.00022664069547317922,0.09400942176580429,0,0,0
267,9559.879869203476,2010-08-17 17:09:47,360.1822271002344,7,1,-1.099568486213684,3.9017834663391113,1.138645028456104,0.110020523957141,4.535275723661054,0.435434991515435,-0.00019426345534157008,0.09400942176580429,0,0,0
268,9589.895058515685,2010-08-17 17:10:17,390.1974164074308,7,1,-1.0997490882873535,3.894498586654663,1.138645028456104,0.119188815117632,4.535275723661054,0.471173206700741,-0.00016188621520996094,0.09400942176580429,0,0,0
269,9619.910313511597,2010-08-17 17:10:47,420.21267143341873,7,1,-1.0997490882873535,3.887051820755005,1.138645028456104,0.12835705088393,4.535275723661054,0.506845010259923,-0.00022664069547317922,0.09400942176580429,0,0,0
270,9649.92540441855,2010-08-17 17:11:17,450.22776230528393,7,1,-1.0993878841400146,3.8802525997161865,1.138645028456104,0.13752522306072,4.535275723661054,0.54245103399813,-0.00016188621520996094,0.09400942176580429,0,0,0
271,9679.940564182114,2010-08-17 17:11:47,480.242922073861,7,1,-1.0993878841400146,3.873291492462158,1.138645028456104,0.14669311869776,4.535275723661054,0.577991531503038,-0.00016188621520996094,0.09400942176580429,0,0,0
272,9709.955703589945,2010-08-17 17:12:17,510.25806148670534,7,1,-1.099568486213684,3.86616849899292,1.138645028456104,0.155860539751954,4.535275723661054,0.613466512354835,-0.00019426345534157008,0.09400942176580429,0,0,0
273,9739.9709297941,2010-08-17 17:12:47,540.2732877109103,7,1,-1.0997490882873535,3.8595311641693115,1.138645028456104,0.165028336598916,4.535275723661054,0.648880110744013,-0.00016188621520996094,0.09400942176580429,0,0,0
274,9769.98636103928,2010-08-17 17:13:17,570.288718961103,7,1,-1.099929690361023,3.852570056915283,1.138645028456104,0.174196760451416,4.535275723661054,0.684234222553001,-0.00019426345534157008,0.09400942176580429,0,0,0
275,9800.001407024276,2010-08-17 17:13:47,600.3037649160215,7,1,-1.099568486213684,3.8462564945220947,1.138645028456104,0.183365094447084,4.535275723661054,0.719527395244847,-0.00016188621520996094,0.09400942176580429,0,0,0
276,9830.016591855316,2010-08-17 17:14:17,630.3189497520744,7,1,-1.099568486213684,3.8396191596984863,1.138645028456104,0.192533448785954,4.535275723661054,0.754760472663275,-0.00019426345534157008,0.09400942176580429,0,0,0
277,9860.03177611493,2010-08-17 17:14:47,660.3341340116906,7,1,-1.099568486213684,3.833143949508667,1.138645028456104,0.20170181422093,4.535275723661054,0.789934002475496,-0.00019421576871536672,0.09400942176580429,0,0,0
278,9890.046949472377,2010-08-17 17:15:17,690.3493073891852,7,1,-1.099568486213684,3.8268303871154785,1.138645028456104,0.210870140667037,4.535275723661054,0.825048687065253,-0.00016188621520996094,0.09400942176580429,0,0,0
279,9920.062121030336,2010-08-17 17:15:47,720.3644789471451,7,1,-1.0997490882873535,3.82051682472229,1.138645028456104,0.220038446798481,4.535275723661054,0.860105317061025,-0.00016188621520996094,0.09400942176580429,0,0,0
280,9950.07736532959,2010-08-17 17:16:17,750.3797232263488,7,1,-1.0997490882873535,3.8142032623291016,1.138645028456104,0.229206856857516,4.535275723661054,0.895105044913512,-0.00019426345534157008,0.09400942176580429,0,0,0
281,9980.092562250764,2010-08-17 17:16:47,780.3949201625591,7,1,-1.099568486213684,3.808213472366333,1.138645028456104,0.23837525276303,4.535275723661054,0.930047677321503,-0.00016188621520996094,0.09400942176580429,0,0,0
282,10010.107710886594,2010-08-17 17:17:17,810.4100687883649,7,1,-1.0997490882873535,3.8020617961883545,1.138645028456104,0.247543664139497,4.535275723661054,0.964934673947588,-0.00019426345534157008,0.09400942176580429,0,0,0
283,10040.12289142694,2010-08-17 17:17:48,840.4252493587863,7,1,-1.0997490882873535,3.796072006225586,1.138645028456104,0.256712108103679,4.535275723661054,0.999766961348317,-0.00019426345534157008,0.09400942176580429,0,0,0
284,10070.138335679538,2010-08-17 17:18:18,870.4406935963478,7,1,-1.0997490882873535,3.7904059886932373,1.138645028456104,0.265880638031811,4.535275723661054,1.034545734506119,-0.0001295089750783518,0.09400942176580429,0,0,0
285,10100.153407709444,2010-08-17 17:18:48,900.4557656262531,7,1,-1.099568486213684,3.7845780849456787,1.138645028456104,0.275049083920758,4.535275723661054,1.069271082043494,-0.0001295089750783518,0.09400942176580429,0,0,0
286,10130.1684194541,2010-08-17 17:19:18,930.4707773558715,7,1,-1.099929690361023,3.77875018119812,1.138645028456104,0.284217497570191,4.535275723661054,1.103944115485338,-0.00019426345534157008,0.09400942176580429,0,0,0
287,10160.183607162311,2010-08-17 17:19:48,960.4859650590703,7,1,-1.0997490882873535,3.7735698223114014,1.138645028456104,0.29338601223637,4.535275723661054,1.138566306436699,-0.0001295089750783518,0.09400942176580429,0,0,0
288,10190.19878991818,2010-08-17 17:20:18,990.5011478099264,7,1,-1.0997490882873535,3.7680656909942627,1.138645028456104,0.302554434725813,4.535275723661054,1.173137572803032,-0.0001295089750783518,0.09400942176580429,0,0,0
289,10220.214191609704,2010-08-17 17:20:48,1020.5165495064624,7,1,-1.099929690361023,3.762399673461914,1.138645028456104,0.311722987423171,4.535275723661054,1.207659890457812,-0.00016188621520996094,0.09400942176580429,0,0,0
290,10250.229187404608,2010-08-17 17:21:18,1050.531545296354,7,1,-1.099568486213684,3.7572193145751953,1.138645028456104,0.32089145134976,4.535275723661054,1.242133099770475,-0.00016188621520996094,0.09400942176580429,0,0,0
291,10280.244332271042,2010-08-17 17:21:48,1080.5466901728153,7,1,-1.099568486213684,3.7522010803222656,1.138645028456104,0.330059957524567,4.535275723661054,1.276558506232371,-0.0001295089750783518,0.09400942176580429,0,0,0
292,10310.25957226958,2010-08-17 17:22:18,1110.5619301713502,7,1,-1.099568486213684,3.746858835220337,1.138645028456104,0.339228442416876,4.535275723661054,1.310936370120419,-0.00016188621520996094,0.09400942176580429,0,0,0
293,10340.274855480811,2010-08-17 17:22:48,1140.5772133976218,7,1,-1.099929690361023,3.742002248764038,1.138645028456104,0.348397033517452,4.535275723661054,1.345268189931973,-0.00016188621520996094,0.09400942176580429,0,0,0
294,10370.289872794348,2010-08-17 17:23:18,1170.5922306961197,7,1,-1.0997490882873535,3.7369837760925293,1.138645028456104,0.357565485233872,4.535275723661054,1.379553775418831,-0.0001295089750783518,0.09400942176580429,0,0,0
295,10400.305050051513,2010-08-17 17:23:48,1200.6074079532834,7,1,-1.099568486213684,3.7321271896362305,1.138645028456104,0.366733976352148,4.535275723661054,1.413794270280651,-0.0001295089750783518,0.09400942176580429,0,0,0
296,10430.320225058069,2010-08-17 17:24:18,1230.622582954826,7,1,-1.099568486213684,3.7274324893951416,1.138645028456104,0.375902365202091,4.535275723661054,1.447990136627839,-0.0001295089750783518,0.09400942176580429,0,0,0
297,10460.335430876414,2010-08-17 17:24:48,1260.6377887781855,7,1,-1.0997490882873535,3.7227377891540527,1.138645028456104,0.38507086916385,4.535275723661054,1.482143838078465,-0.00016188621520996094,0.09400942176580429,0,0,0
298,10490.350725546206,2010-08-17 17:25:18,1290.653083447978,7,1,-1.0993878841400146,3.718366861343384,1.138645028456104,0.394239361022348,4.535275723661054,1.516255220987226,-9.713172767078504e-05,0.09400942176580429,0,0,0
299,10520.365806894337,2010-08-17 17:25:48,1320.6681647910948,7,1,-1.099568486213684,3.713672161102295,1.138645028456104,0.403407758340681,4.535275723661054,1.550324853378142,-9.713172767078504e-05,0.09400942176580429,0,0,0
300,10550.380959635397,2010-08-17 17:26:18,1350.6833175271447,7,1,-1.0997490882873535,3.709301233291626,1.138645028456104,0.412576220488714,4.535275723661054,1.584353254804537,-9.713172767078504e-05,0.09400942176580429,0,0,0
301,10580.396156772107,2010-08-17 17:26:48,1380.698514678892,7,1,-1.0997490882873535,3.704930305480957,1.138645028456104,0.421744692457164,4.535275723661054,1.618341256823522,-0.0001295089750783518,0.09400942176580429,0,0,0
302,10610.41131828002,2010-08-17 17:27:18,1410.7136761717666,7,1,-1.099568486213684,3.700559377670288,1.138645028456104,0.430913181100807,4.535275723661054,1.65228928192211,-9.713172767078504e-05,0.09400942176580429,0,0,0
303,10640.426493146226,2010-08-17 17:27:48,1440.7288510479964,7,1,-1.0997490882873535,3.696350336074829,1.138645028456104,0.440081743662088,4.535275723661054,1.68619834721124,-9.713172767078504e-05,0.09400942176580429,0,0,0
304,10670.441683952156,2010-08-17 17:28:18,1470.7440418589408,7,1,-1.0997490882873535,3.69197940826416,1.138645028456104,0.449250235308461,4.535275723661054,1.720068799489345,-0.0001295089750783518,0.09400942176580429,0,0,0
305,10700.457004531523,2010-08-17 17:28:48,1500.759362433295,7,1,-1.099568486213684,3.688094139099121,1.138645028456104,0.458418807650691,4.535275723661054,1.753901871311905,-9.713172767078504e-05,0.09400942176580429,0,0,0
306,10730.472076491253,2010-08-17 17:29:18,1530.7744344080631,7,1,-1.0997490882873535,3.683885097503662,1.138645028456104,0.467587302180326,4.535275723661054,1.78769766506508,-0.00016188621520996094,0.09400942176580429,0,0,0
307,10760.487219237406,2010-08-17 17:29:48,1560.7895771291526,7,1,-1.0997490882873535,3.679999828338623,1.138645028456104,0.476755769291074,4.535275723661054,1.8214565238956,-9.713172767078504e-05,0.09400942176580429,0,0,0
308,10790.502392905624,2010-08-17 17:30:18,1590.8047507973718,7,1,-1.0997490882873535,3.676276445388794,1.138645028456104,0.485924273922047,4.535275723661054,1.855179556058132,-9.713172767078504e-05,0.09400942176580429,0,0,0
309,10820.517617375455,2010-08-17 17:30:48,1620.8199752722169,7,1,-1.099568486213684,3.672391414642334,1.138645028456104,0.495092824368373,4.535275723661054,1.888867761998767,-9.70840483205393e-05,0.09400942176580429,0,0,0
310,10850.532758116611,2010-08-17 17:31:18,1650.8351160133718,7,1,-1.099568486213684,3.668668031692505,1.138645028456104,0.504261335404934,4.535275723661054,1.922521082564839,-9.713172767078504e-05,0.09400942176580429,0,0,0
311,10880.547931248497,2010-08-17 17:31:48,1680.8502891502667,7,1,-1.099568486213684,3.664944648742676,1.138645028456104,0.51342976143546,4.535275723661054,1.956140087568174,-0.0001295089750783518,0.09400942176580429,0,0,0
312,10910.563121668463,2010-08-17 17:32:18,1710.8654795702366,7,1,-1.099568486213684,3.6613831520080566,1.138645028456104,0.522598225322288,4.535275723661054,1.989725878975692,-9.713172767078504e-05,0.09400942176580429,0,0,0
313,10940.57837578218,2010-08-17 17:32:48,1740.880733683951,7,1,-1.0997490882873535,3.6578216552734375,1.138645028456104,0.531766740913419,4.535275723661054,2.023279400936076,-9.713172767078504e-05,0.09400942176580429,0,0,0
314,10970.59350036807,2010-08-17 17:33:18,1770.8958582698417,7,1,-1.0997490882873535,3.6544220447540283,1.138645028456104,0.540935257151712,4.535275723661054,2.056800910866989,-6.47544875391759e-05,0.09400942176580429,0,0,0
315,11000.608778311174,2010-08-17 17:33:48,1800.9111362029212,7,1,-1.0997490882873535,3.651184320449829,1.138645028456104,0.550103753133658,4.535275723661054,2.090291312793044,-9.713172767078504e-05,0.09400942176580429,0,0,0
316,11030.623958640996,2010-08-17 17:34:18,1830.9263165327432,7,1,-1.099568486213684,3.64778470993042,1.138645028456104,0.559272233127706,4.535275723661054,2.123751461003298,-9.713172767078504e-05,0.09400942176580429,0,0,0
317,11060.6390312724,2010-08-17 17:34:48,1860.94138916916,7,1,-1.0997490882873535,3.6445469856262207,1.138645028456104,0.568440651527404,4.535275723661054,2.157181307994442,-9.713172767078504e-05,0.09400942176580429,0,0,0
318,11090.654198499567,2010-08-17 17:35:18,1890.9565564013387,7,1,-1.099568486213684,3.6416330337524414,1.138645028456104,0.577609106148298,4.535275723661054,2.190582750185796,-6.47544875391759e-05,0.09400942176580429,0,0,0
319,11120.669450873947,2010-08-17 17:35:48,1920.971808765693,7,1,-1.099929690361023,3.638557195663452,1.138645028456104,0.586777553281714,4.535275723661054,2.223956123665417,-0.0001295089750783518,0.09400942176580429,0,0,0
320,11150.684565720563,2010-08-17 17:36:18,1950.986923622336,7,1,-1.0997490882873535,3.635481357574463,1.138645028456104,0.595945981791388,4.535275723661054,2.257302160509629,-9.713172767078504e-05,0.09400942176580429,0,0,0
321,11180.702711285663,2010-08-17 17:36:48,1981.0050692325487,7,1,-1.0997490882873535,3.6327292919158936,1.138645028456104,0.605115334997722,4.535275723661054,2.290625168680249,-9.713172767078504e-05,0.09400942176580429,0,0,0
322,11210.714924124588,2010-08-17 17:37:18,2011.017282016333,7,1,-1.0997490882873535,3.629977226257324,1.138645028456104,0.614282908036355,4.535275723661054,2.323915428703724,-3.237724376958795e-05,0.09400942176580429,0,0,0
323,11240.730249064822,2010-08-17 17:37:48,2041.0326069665937,7,1,-1.0997490882873535,3.627225160598755,1.138645028456104,0.623451517021285,4.535275723661054,2.357183965602545,-6.47544875391759e-05,0.09400942176580429,0,0,0
324,11270.745420427294,2010-08-17 17:38:18,2071.047778329066,7,1,-1.0997490882873535,3.6244730949401855,1.138645028456104,0.632620046553247,4.535275723661054,2.390426990274705,-6.47544875391759e-05,0.09400942176580429,0,0,0
325,11300.760599609255,2010-08-17 17:38:48,2101.0629575060148,7,1,-1.099568486213684,3.621721029281616,1.138645028456104,0.641788610778264,4.535275723661054,2.423645620807385,-6.47544875391759e-05,0.09400942176580429,0,0,0
326,11330.775636431414,2010-08-17 17:39:18,2131.0779943331845,7,1,-1.0997490882873535,3.619130849838257,1.138645028456104,0.650957096247866,4.535275723661054,2.456839822108892,-6.47544875391759e-05,0.09400942176580429,0,0,0
327,11360.790842360037,2010-08-17 17:39:48,2161.0932002768436,7,1,-1.099568486213684,3.6165406703948975,1.138645028456104,0.660125650294207,4.535275723661054,2.490010381060457,-6.47544875391759e-05,0.09400942176580429,0,0,0
328,11390.805990725192,2010-08-17 17:40:18,2191.10834862195,7,1,-1.0997490882873535,3.613950490951538,1.138645028456104,0.669294099325638,4.535275723661054,2.523156914710374,-9.713172767078504e-05,0.09400942176580429,0,0,0
329,11420.82118599224,2010-08-17 17:40:48,2221.1235438839876,7,1,-1.099568486213684,3.6115221977233887,1.138645028456104,0.6784626246238,4.535275723661054,2.556280623159474,-6.47544875391759e-05,0.09400942176580429,0,0,0
330,11450.836491318592,2010-08-17 17:41:18,2251.138849215352,7,1,-1.0997490882873535,3.6089320182800293,1.138645028456104,0.687631128743257,4.535275723661054,2.58938073062781,0.0,0.09400942176580429,0,0,0
331,11480.851531935208,2010-08-17 17:41:48,2281.153889826953,7,1,-1.099568486213684,3.60634183883667,1.138645028456104,0.696799588345574,4.535275723661054,2.62245731608169,-6.47544875391759e-05,0.09400942176580429,0,0,0
332,11510.866709157282,2010-08-17 17:42:18,2311.1690670490298,7,1,-1.099568486213684,3.6039135456085205,1.138645028456104,0.705968051157381,4.535275723661054,2.655510832419679,-6.47544875391759e-05,0.09400942176580429,0,0,0
333,11540.88190117624,2010-08-17 17:42:48,2341.184259067985,7,1,-1.0997490882873535,3.601323366165161,1.138645028456104,0.715136498350735,4.535275723661054,2.688541509547195,-6.47544875391759e-05,0.09400942176580429,0,0,0
334,11570.897097726487,2010-08-17 17:43:18,2371.199455628258,7,1,-1.099568486213684,3.5988950729370117,1.138645028456104,0.724304961163581,4.535275723661054,2.721548877432996,-3.237724376958795e-05,0.09400942176580429,0,0,0
335,11600.912248522702,2010-08-17 17:43:48,2401.214606414449,7,1,-1.0997490882873535,3.5963048934936523,1.138645028456104,0.73347343256918,4.535275723661054,2.754532638630575,-3.237724376958795e-05,0.09400942176580429,0,0,0
336,11630.927426807426,2010-08-17 17:44:18,2431.2297846991733,7,1,-1.099568486213684,3.593714714050293,1.138645028456104,0.742641902062764,4.535275723661054,2.787492697004433,-6.47544875391759e-05,0.09400942176580429,0,0,0
337,11660.942626440356,2010-08-17 17:44:48,2461.2449843321047,7,1,-1.099568486213684,3.5909628868103027,1.138645028456104,0.751810331072368,4.535275723661054,2.820428829799862,-9.713172767078504e-05,0.09400942176580429,0,0,0
338,11690.957786504672,2010-08-17 17:45:18,2491.2601444264938,7,1,-1.0993878841400146,3.5882108211517334,1.138645028456104,0.760978830591207,4.535275723661054,2.853340749528238,-9.713172767078504e-05,0.09400942176580429,0,0,0
339,11720.973096086633,2010-08-17 17:45:48,2521.2754539884018,7,1,-1.0997490882873535,3.585458755493164,1.138645028456104,0.770147414555601,4.535275723661054,2.886228077045346,-6.47544875391759e-05,0.09400942176580429,0,0,0
340,11750.988272882643,2010-08-17 17:46:18,2551.290630799454,7,1,-1.0997490882873535,3.5827066898345947,1.138645028456104,0.77931592594801,4.535275723661054,2.919089663344789,-6.47544875391759e-05,0.09400942176580429,0,0,0
341,11781.003345428837,2010-08-17 17:46:48,2581.3057033506584,7,1,-1.0997490882873535,3.5799546241760254,1.138645028456104,0.78848439050307,4.535275723661054,2.951926087412887,-9.713172767078504e-05,0.09400942176580429,0,0,0
342,11811.018982802754,2010-08-17 17:47:18,2611.32134071455,7,1,-1.099568486213684,3.577202558517456,1.138645028456104,0.79765305330344,4.535275723661054,2.984737231723561,-9.713172767078504e-05,0.09400942176580429,0,0,0
343,11841.033724098368,2010-08-17 17:47:48,2641.3360819951263,7,1,-1.099568486213684,3.5744504928588867,1.138645028456104,0.806821454338239,4.535275723661054,3.017521327108141,-6.47544875391759e-05,0.09400942176580429,0,0,0
344,11871.048865816958,2010-08-17 17:48:18,2671.3512237187297,7,1,-1.0997490882873535,3.5712127685546875,1.138645028456104,0.815989890677664,4.535275723661054,3.050278865799907,-9.713172767078504e-05,0.09400942176580429,0,0,0
345,11901.064068823296,2010-08-17 17:48:48,2701.366426720056,7,1,-1.099568486213684,3.568460702896118,1.138645028456104,0.825158348330201,4.535275723661054,3.083008767021441,-6.47544875391759e-05,0.09400942176580429,0,0,0
346,11931.07937664587,2010-08-17 17:49:18,2731.381734542629,7,1,-1.099568486213684,3.565222978591919,1.138645028456104,0.8343268517867,4.535275723661054,3.115710925241737,-9.713172767078504e-05,0.09400942176580429,0,0,0
347,11961.094407738748,2010-08-17 17:49:49,2761.3967656304944,7,1,-1.099568486213684,3.5621471405029297,1.138645028456104,0.843495225612507,4.535275723661054,3.148383861229152,-3.237724376958795e-05,0.09400942176580429,0,0,0
348,11991.1098745225,2010-08-17 17:50:19,2791.4122324242726,7,1,-1.0997490882873535,3.5587475299835205,1.138645028456104,0.852663805187055,4.535275723661054,3.181028358877142,-6.47544875391759e-05,0.09400942176580429,0,0,0
349,12021.124900402388,2010-08-17 17:50:49,2821.4272583041584,7,1,-1.099568486213684,3.5555098056793213,1.138645028456104,0.861832281093279,4.535275723661054,3.21364228324266,-6.47544875391759e-05,0.09400942176580429,0,0,0
350,12051.139934006524,2010-08-17 17:51:19,2851.4422919082945,7,1,-1.0997490882873535,3.552110195159912,1.138645028456104,0.871000705169264,4.535275723661054,3.246225260672767,-9.713172767078504e-05,0.09400942176580429,0,0,0
351,12081.155115890218,2010-08-17 17:51:49,2881.4574737869766,7,1,-1.0997490882873535,3.548548698425293,1.138645028456104,0.880169192275063,4.535275723661054,3.278776633979375,-9.713172767078504e-05,0.09400942176580429,0,0,0
352,12111.170302159844,2010-08-17 17:52:19,2911.472660061615,7,1,-1.0997490882873535,3.544987201690674,1.138645028456104,0.889337738682699,4.535275723661054,3.311295112830817,-6.47544875391759e-05,0.09400942176580429,0,0,0
353,12141.185679761327,2010-08-17 17:52:49,2941.4880376530737,7,1,-1.0997490882873535,3.5411019325256348,1.138645028456104,0.898506353489564,4.535275723661054,3.343779299738404,-9.713172767078504e-05,0.09400942176580429,0,0,0
354,12171.200669375829,2010-08-17 17:53:19,2971.503027267575,7,1,-1.0997490882873535,3.5370547771453857,1.138645028456104,0.907674817189616,4.535275723661054,3.376227112850445,-9.713172767078504e-05,0.09400942176580429,0,0,0
355,12201.215853570282,2010-08-17 17:53:49,3001.5182114921035,7,1,-1.0997490882873535,3.5328457355499268,1.138645028456104,0.916843376396963,4.535275723661054,3.408638094787252,-0.0001295089750783518,0.09400942176580429,0,0,0
356,12231.231124571084,2010-08-17 17:54:19,3031.533482482881,7,1,-1.099568486213684,3.5287985801696777,1.138645028456104,0.926011916719606,4.535275723661054,3.441010695941522,-9.713172767078504e-05,0.09400942176580429,0,0,0
357,12261.246489220286,2010-08-17 17:54:49,3061.548847142108,7,1,-1.099568486213684,3.524265766143799,1.138645028456104,0.935180462313336,4.535275723661054,3.473343176509083,-0.00016188621520996094,0.09400942176580429,0,0,0
358,12291.26136932686,2010-08-17 17:55:19,3091.5637272286313,7,1,-1.0997490882873535,3.51957106590271,1.138645028456104,0.944348876435781,4.535275723661054,3.505633693245505,-0.00016188621520996094,0.09400942176580429,0,0,0
359,12321.276543295828,2010-08-17 17:55:49,3121.5789011925876,7,1,-1.099568486213684,3.514876365661621,1.138645028456104,0.953517387322863,4.535275723661054,3.537881797091753,-9.713172767078504e-05,0.09400942176580429,0,0,0
360,12351.291763690506,2010-08-17 17:56:19,3151.5941215872635,7,1,-1.0997490882873535,3.5098581314086914,1.138645028456104,0.962685916437413,4.535275723661054,3.570085650807315,-0.00016188621520996094,0.09400942176580429,0,0,0
361,12381.306923925244,2010-08-17 17:56:49,3181.60928181699,7,1,-1.099568486213684,3.5050015449523926,1.138645028456104,0.971854464793976,4.535275723661054,3.60224429752701,-0.00016188621520996094,0.09400942176580429,0,0,0
362,12411.32223046462,2010-08-17 17:57:19,3211.62458836639,7,1,-1.0997490882873535,3.499659299850464,1.138645028456104,0.981023053429296,4.535275723661054,3.634356249283974,-0.00016188621520996094,0.09400942176580429,0,0,0
363,12441.337380874873,2010-08-17 17:57:49,3241.6397387766433,7,1,-1.0997490882873535,3.494155168533325,1.138645028456104,0.990191645046714,4.535275723661054,3.66641897664399,-0.00016188621520996094,0.09400942176580429,0,0,0
364,12471.352431631758,2010-08-17 17:58:19,3271.6547895335298,7,1,-1.099929690361023,3.4880034923553467,1.138645028456104,0.999360139150996,4.535275723661054,3.698428545341586,-0.00022664069547317922,0.09400942176580429,0,0,0
365,12501.367761885236,2010-08-17 17:58:49,3301.670119776983,7,1,-1.099568486213684,3.481689929962158,1.138645028456104,1.008528729353773,4.535275723661054,3.730380736526498,-0.00019426345534157008,0.09400942176580429,0,0,0
366,12531.382814376446,2010-08-17 17:59:19,3331.685172273204,7,1,-1.0997490882873535,3.4742431640625,1.138645028456104,1.017697127588828,4.535275723661054,3.76226829964015,-0.00019426345534157008,0.09400942176580429,0,0,0
367,12561.39798140311,2010-08-17 17:59:49,3361.700339304883,7,1,-1.099568486213684,3.466310739517212,1.138645028456104,1.026865625621761,4.535275723661054,3.794086148975372,-0.00019426345534157008,0.09400942176580429,0,0,0
368,12591.413250444028,2010-08-17 18:00:19,3391.7156083859,7,1,-1.0997490882873535,3.457083225250244,1.138645028456104,1.036034171985931,4.535275723661054,3.825825968888263,-0.0002913951757363975,0.09400942176580429,0,0,0
369,12621.428374323155,2010-08-17 18:00:49,3421.7307322098923,7,1,-1.099568486213684,3.4470462799072266,1.138645028456104,1.045202617624595,4.535275723661054,3.857477205867817,-0.0002590179501567036,0.09400942176580429,0,0,0
370,12651.443501114543,2010-08-17 18:01:19,3451.745859011305,7,1,-1.099568486213684,3.4349048137664795,1.138645028456104,1.054371136770143,4.535275723661054,3.889026443757566,-0.0003237724304199219,0.09400942176580429,0,0,0
371,12681.458814260386,2010-08-17 18:01:49,3481.761172152133,7,1,-1.0997490882873535,3.420173406600952,1.138645028456104,1.063539696612278,4.535275723661054,3.920454271103483,-0.00042090416536666453,0.09400942176580429,0,0,0
372,12711.473862245364,2010-08-17 18:02:19,3511.776220147136,7,1,-1.099568486213684,3.4013946056365967,1.138645028456104,1.072708166263072,4.535275723661054,3.951729282524824,-0.0005504131549969316,0.09400942176580429,0,0,0
373,12741.489193676778,2010-08-17 18:02:49,3541.7915515685245,7,1,-1.0997490882873535,3.375978469848633,1.138645028456104,1.081876703662676,4.535275723661054,3.982804922556277,-0.0007770538213662803,0.09400942176580429,0,0,0
374,12771.504233997654,2010-08-17 18:03:19,3571.8065918894013,7,1,-1.099568486213684,3.3410112857818604,1.138645028456104,1.091045264613459,4.535275723661054,4.013607121302765,-0.0010684489971026778,0.09400942176580429,0,0,0
375,12801.519396979238,2010-08-17 18:03:49,3601.821754881011,7,1,-1.1001102924346924,3.292445421218872,1.138645028456104,1.100213771042149,4.535275723661054,4.044027501916605,-0.0014569759368896484,0.09400942176580429,0,0,0
376,12831.53459862218,2010-08-17 18:04:19,3631.8369565490143,7,1,-1.099568486213684,3.227367401123047,1.138645028456104,1.109382250462087,4.535275723661054,4.073929820325661,-0.0019426345825195312,0.09400942176580429,0,0,0
377,12861.54976501226,2010-08-17 18:04:49,3661.852122914032,7,1,-1.099568486213684,3.1393015384674072,1.138645028456104,1.118550775183696,4.535275723661054,4.103136872408841,-0.0027196884620934725,0.09400942176580429,0,0,0
378,12891.564959081326,2010-08-17 18:05:19,3691.867316978084,7,1,-1.0997490882873535,3.012545108795166,1.138645028456104,1.127719276301017,4.535275723661054,4.131381206668452,-0.004079484846442938,0.09400942176580429,0,0,0
379,12917.174282775764,2010-08-17 18:05:45,3717.476640692572,7,1,-1.0997490882873535,2.8124542236328125,1.138645028456104,1.135541998349706,4.535275723661054,4.154281660622281,-0.009292269125580788,0.09400942176580429,0,0,0
380,12924.330189081093,2010-08-17 18:05:52,3724.632546982865,7,1,-1.099568486213684,2.699943780899048,1.138645028456104,1.137727857440695,4.535275723661054,4.160314186644952,-0.013598394580185413,0.09400942176580429,0,0,0
381,12984.344983678207,2010-08-17 18:06:52,60.01486617762731,8,1,0.0,3.2545642852783203,1.138645028456104,1.137727857440695,4.535275723661054,4.160314186644952,0.0012303352123126388,0.09400942176580429,0,0,0
382,12984.533278946012,2010-08-17 18:06:52,0.187490549137851,9,1,-1.9243103452026844e-05,3.2547261714935303,1.138645028456104,1.13772785844289,4.535275723661054,4.160314189906821,0.0,0.08833643794059753,0,0,0
383,12989.361423663231,2010-08-17 18:06:57,5.015635296431105,9,1,0.0007031940040178597,3.2624967098236084,1.138645812632654,1.137727858609917,4.535278279366493,4.160314190450449,0.00116558070294559,0.08833643794059753,0,0,0
