Data_Point,Test_Time(s),Date_Time,Step_Time(s),Step_Index,Cycle_Index,Current(A),Voltage(V),Charge_Capacity(Ah),Discharge_Capacity(Ah),Charge_Energy(Wh),Discharge_Energy(Wh),dV/dt(V/s),Internal_Resistance(Ohm),Is_FC_Data,AC_Impedance(Ohm),ACI_Phase_Angle(Deg)
1,30.000172977248113,2010-08-18 10:59:23,29.93657151747432,1,1,0.0,3.51908540725708,0.0,0.0,0.0,0.0,3.237724376958795e-05,0.0,0,0,0
2,60.01524694698808,2010-08-18 10:59:53,59.95164549222678,1,1,0.0,3.51924729347229,0.0,0.0,0.0,0.0,3.237724376958795e-05,0.0,0,0,0
3,90.03040486094285,2010-08-18 11:00:24,89.96680340116906,1,1,0.0,3.51908540725708,0.0,0.0,0.0,0.0,0.0,0.0,0,0,0
4,120.04590214571414,2010-08-18 11:00:54,119.98230069095284,1,1,0.0,3.51908540725708,0.0,0.0,0.0,0.0,0.0,0.0,0,0,0
5,120.07682543105606,2010-08-18 11:00:54,120.01322397128229,1,1,0.0,3.51892352104187,0.0,0.0,0.0,0.0,-3.237724376958795e-05,0.0,0,0,0
6,150.09242221706717,2010-08-18 11:01:24,30.015196856010363,2,1,0.550297200679779,3.6332149505615234,0.004586884633961,0.0,0.016567776835992,0.0,0.001003694487735629,0.0,0,0,0
7,180.1076954133409,2010-08-18 11:01:54,60.030470027221696,2,1,0.5501165986061096,3.6662397384643555,0.009173778019259,0.0,0.033311623093167,0.0,0.0008418083307333291,0.0,0,0,0
8,210.12276426532588,2010-08-18 11:02:24,90.0455389042691,2,1,0.5501165986061096,3.69278883934021,0.013760617849943,0.0,0.050190169237644,0.0,0.0006799221155233681,0.0,0,0,0
9,240.1380501632561,2010-08-18 11:02:54,120.06082477713686,2,1,0.550297200679779,3.7154529094696045,0.018347511109365,0.0,0.067181481049009,0.0,0.0005504131549969316,0.0,0,0,0
10,270.15314167672045,2010-08-18 11:03:24,150.07591629561367,2,1,0.5499359965324402,3.7353649139404297,0.022934287432973,0.0,0.084269936481277,0.0,0.0004856586456298828,0.0,0,0,0
11,300.1683214601807,2010-08-18 11:03:54,180.09109606403652,2,1,0.550297200679779,3.7531721591949463,0.027521056825617,0.0,0.101444589094255,0.0,0.0004856109735555947,0.0,0,0,0
12,330.183497865221,2010-08-18 11:04:24,210.10627246907677,2,1,0.5501165986061096,3.7683894634246826,0.032107855758418,0.0,0.118695562955996,0.0,0.00035614968510344625,0.0,0,0,0
13,360.19870056078537,2010-08-18 11:04:54,240.12147519972856,2,1,0.5501165986061096,3.77955961227417,0.036694648575577,0.0,0.136008355369568,0.0,0.00022664069547317922,0.0,0,0,0
14,390.21391259462354,2010-08-18 11:05:24,270.1366872285542,2,1,0.5499359965324402,3.7845780849456787,0.041281514278289,0.0,0.1533582319824,0.0,9.713172767078504e-05,0.0,0,0,0
15,420.22917392131467,2010-08-18 11:05:54,300.15194853519546,2,1,0.5501165986061096,3.786682605743408,0.045868358518117,0.0,0.170723203021352,0.0,3.237724376958795e-05,0.0,0,0,0
16,450.2442326480644,2010-08-18 11:06:24,330.16700727698264,2,1,0.550297200679779,3.787977695465088,0.050455132043334,0.0,0.188094485052209,0.0,6.47544875391759e-05,0.0,0,0,0
17,480.25955712213835,2010-08-18 11:06:54,360.182331746044,2,1,0.5501165986061096,3.7886252403259277,0.055041980809467,0.0,0.205470468997239,0.0,3.237724376958795e-05,0.0,0,0,0
18,510.27461677118663,2010-08-18 11:07:24,390.19739137504246,2,1,0.5501165986061096,3.7895965576171875,0.059628823354598,0.0,0.222850334399893,0.0,6.47544875391759e-05,0.0,0,0,0
19,540.2898220281347,2010-08-18 11:07:54,420.2125966319905,2,1,0.5501165986061096,3.7904059886932373,0.064215607954754,0.0,0.240234135222015,0.0,0.0,0.0,0,0,0
20,570.3050023629692,2010-08-18 11:08:24,450.22777701193746,2,1,0.5501165986061096,3.791539192199707,0.068802437493951,0.0,0.257622522952014,0.0,6.47544875391759e-05,0.0,0,0,0
21,600.3201545877448,2010-08-18 11:08:54,480.242929226688,2,1,0.5501165986061096,3.7926723957061768,0.073389189541196,0.0,0.275015521889641,0.0,3.237724376958795e-05,0.0,0,0,0
22,630.3353635038126,2010-08-18 11:09:24,510.2581381327308,2,1,0.5501165986061096,3.7938055992126465,0.077975950380897,0.0,0.292414308985722,0.0,0.0,0.0,0,0,0
23,660.3505475478917,2010-08-18 11:09:54,540.2733221717974,2,1,0.5501165986061096,3.795424461364746,0.082562669048327,0.0,0.309819232950847,0.0,6.47544875391759e-05,0.0,0,0,0
24,690.3657347749037,2010-08-18 11:10:24,570.2885093887844,2,1,0.5501165986061096,3.7970433235168457,0.087149425944609,0.0,0.327231335488796,0.0,6.47544875391759e-05,0.0,0,0,0
25,720.3808911299731,2010-08-18 11:10:54,600.3036657538789,2,1,0.5501165986061096,3.7986621856689453,0.091736253358101,0.0,0.344651396389619,0.0,3.237724376958795e-05,0.0,0,0,0
26,750.3960937453376,2010-08-18 11:11:24,630.3188683592183,2,1,0.5501165986061096,3.800604820251465,0.096323082754809,0.0,0.362079645801943,0.0,6.47544875391759e-05,0.0,0,0,0
27,780.4113818086646,2010-08-18 11:11:54,660.3341564325705,2,1,0.5501165986061096,3.8023855686187744,0.100909995467651,0.0,0.379516853825345,0.0,3.237724376958795e-05,0.0,0,0,0
28,810.4264458135693,2010-08-18 11:12:24,690.3492204174249,2,1,0.550297200679779,3.804651975631714,0.105496767584053,0.0,0.396962648895292,0.0,6.47544875391759e-05,0.0,0,0,0
29,840.441634078167,2010-08-18 11:12:54,720.3644087221228,2,1,0.5501165986061096,3.8065946102142334,0.110083596592442,0.0,0.414418400440242,0.0,3.237724376958795e-05,0.0,0,0,0
30,870.4569540359851,2010-08-18 11:13:24,750.3797286498658,2,1,0.5499359965324402,3.809022903442383,0.114670421593952,0.0,0.431884245249797,0.0,6.47544875391759e-05,0.0,0,0,0
31,900.4720054896078,2010-08-18 11:13:54,780.3947800984762,2,1,0.5501165986061096,3.8112893104553223,0.119257234349252,0.0,0.449360816174319,0.0,6.47544875391759e-05,0.0,0,0,0
32,930.4871921151206,2010-08-18 11:14:24,810.4099667390263,2,1,0.5501165986061096,3.8140413761138916,0.123844025592546,0.0,0.466848686285732,0.0,9.713172767078504e-05,0.0,0,0,0
33,960.5024890305099,2010-08-18 11:14:54,840.4252636594282,2,1,0.5499359965324402,3.816631555557251,0.128430817915958,0.0,0.484348733271813,0.0,6.47544875391759e-05,0.0,0,0,0
34,990.517572148049,2010-08-18 11:15:24,870.4403467769672,2,1,0.5499359965324402,3.8193836212158203,0.133017635376992,0.0,0.50186149229924,0.0,9.713172767078504e-05,0.0,0,0,0
35,1020.5328618855484,2010-08-18 11:15:54,900.4556365295043,2,1,0.5499359965324402,3.8224594593048096,0.137604476268272,0.0,0.519387613718066,0.0,9.713172767078504e-05,0.0,0,0,0
36,1050.5479187326137,2010-08-18 11:16:24,930.4706933565194,2,1,0.5499359965324402,3.825373411178589,0.142191236314629,0.0,0.53692710142637,0.0,9.713172767078504e-05,0.0,0,0,0
37,1080.5630993331104,2010-08-18 11:16:54,960.4858739570159,2,1,0.5499359965324402,3.828449249267578,0.146778050426591,0.0,0.554480975464649,0.0,6.47544875391759e-05,0.0,0,0,0
38,1110.578329452022,2010-08-18 11:17:24,990.5011040709154,2,1,0.5501165986061096,3.8316869735717773,0.151364846822141,0.0,0.572048955713098,0.0,9.713172767078504e-05,0.0,0,0,0
39,1140.5935933801968,2010-08-18 11:17:54,1020.516367989065,2,1,0.5501165986061096,3.8347625732421875,0.155951678464631,0.0,0.589631365157518,0.0,9.713172767078504e-05,0.0,0,0,0
40,1170.6114773483173,2010-08-18 11:18:24,1050.534251962198,2,1,0.550297200679779,3.8378384113311768,0.160538834389274,0.0,0.607229332761842,0.0,6.47544875391759e-05,0.0,0,0,0
41,1200.6238696445016,2010-08-18 11:18:54,1080.5466442834447,2,1,0.550297200679779,3.841076135635376,0.165125196686651,0.0,0.624838417450495,0.0,0.0001295089750783518,0.0,0,0,0
42,1230.6390581446867,2010-08-18 11:19:24,1110.5618327535549,2,1,0.5501165986061096,3.8439900875091553,0.169712022385132,0.0,0.642463154330669,0.0,9.713172767078504e-05,0.0,0,0,0
43,1260.6542041238963,2010-08-18 11:19:54,1140.5769787377774,2,1,0.5497553944587708,3.8465802669525146,0.174298819370375,0.0,0.660101254814849,0.0,3.237724376958795e-05,0.0,0,0,0
44,1290.669401195444,2010-08-18 11:20:24,1170.5921758093248,2,1,0.550297200679779,3.849656105041504,0.178885616662551,0.0,0.677752589032862,0.0,6.47544875391759e-05,0.0,0,0,0
45,1320.6845750491257,2010-08-18 11:20:54,1200.6073496680187,2,1,0.550297200679779,3.852570056915283,0.183472523740066,0.0,0.695417273344073,0.0,9.713172767078504e-05,0.0,0,0,0
46,1350.6998980495266,2010-08-18 11:21:24,1230.6226726583948,2,1,0.550297200679779,3.8553221225738525,0.188059405839785,0.0,0.713094421999715,0.0,9.713172767078504e-05,0.0,0,0,0
47,1380.714945347793,2010-08-18 11:21:54,1260.6377199516487,2,1,0.5501165986061096,3.857912302017212,0.192646166740164,0.0,0.73078365296858,0.0,3.237724376958795e-05,0.0,0,0,0
48,1410.730148925556,2010-08-18 11:22:24,1290.6529235494615,2,1,0.5501165986061096,3.8606643676757812,0.197233022945767,0.0,0.748485602938362,0.0,9.713172767078504e-05,0.0,0,0,0
49,1440.7454589987385,2010-08-18 11:22:54,1320.6682336126191,2,1,0.550297200679779,3.8634164333343506,0.201819890006167,0.0,0.76619997802797,0.0,0.0001295089750783518,0.0,0,0,0
50,1470.7607081550973,2010-08-18 11:23:24,1350.6834827940406,2,1,0.550297200679779,3.86616849899292,0.206406693064959,0.0,0.783926256001916,0.0,0.0001295089750783518,0.0,0,0,0
51,1500.7756876794504,2010-08-18 11:23:54,1380.6984623183937,2,1,0.5501165986061096,3.8685967922210693,0.210993461277112,0.0,0.801664605660723,0.0,6.47544875391759e-05,0.0,0,0,0
52,1530.7908660995126,2010-08-18 11:24:24,1410.7136407234184,2,1,0.5501165986061096,3.8711869716644287,0.215580250210118,0.0,0.819415029285163,0.0,9.713172767078504e-05,0.0,0,0,0
53,1560.8060420484162,2010-08-18 11:24:54,1440.7288166622968,2,1,0.5501165986061096,3.873777151107788,0.220167074765678,0.0,0.837177376689966,0.0,6.47544875391759e-05,0.0,0,0,0
54,1590.8212437665445,2010-08-18 11:25:24,1470.7440183904505,2,1,0.5501165986061096,3.8760435581207275,0.224753879450714,0.0,0.854950923887134,0.0,3.237724376958795e-05,0.0,0,0,0
55,1620.8365748871836,2010-08-18 11:25:54,1500.7593495010642,2,1,0.5499359965324402,3.878471851348877,0.229340688087185,0.0,0.872735405771372,0.0,9.713172767078504e-05,0.0,0,0,0
56,1650.8517829912275,2010-08-18 11:26:24,1530.774557605108,2,1,0.5501165986061096,3.8804144859313965,0.233927480661793,0.0,0.890529970409195,0.0,3.237724376958795e-05,0.0,0,0,0
57,1680.8667899289028,2010-08-18 11:26:55,1560.7895645528083,2,1,0.5501165986061096,3.882519006729126,0.238514246342004,0.0,0.908333720253502,0.0,6.47544875391759e-05,0.0,0,0,0
58,1710.8822568830808,2010-08-18 11:27:25,1590.8050315170117,2,1,0.550297200679779,3.8841378688812256,0.243101090271758,0.0,0.926146168414342,0.0,3.237724376958795e-05,0.0,0,0,0
59,1740.8972970285204,2010-08-18 11:27:55,1620.820071652426,2,1,0.550297200679779,3.885918617248535,0.24768791413039,0.0,0.943965888922306,0.0,9.713172767078504e-05,0.0,0,0,0
60,1770.9123426024894,2010-08-18 11:28:25,1650.8351172263951,2,1,0.5501165986061096,3.887051820755005,0.252274713253571,0.0,0.961792098836984,0.0,6.47544875391759e-05,0.0,0,0,0
61,1800.9275192330915,2010-08-18 11:28:55,1680.8502938369477,2,1,0.550297200679779,3.8883469104766846,0.256861513296602,0.0,0.979624131848647,0.0,6.47544875391759e-05,0.0,0,0,0
62,1830.9427413019405,2010-08-18 11:29:25,1710.8655159308585,2,1,0.5499359965324402,3.8891563415527344,0.261448372711058,0.0,0.997461659262969,0.0,0.0,0.0,0,0,0
63,1860.9578683940777,2010-08-18 11:29:55,1740.8806429979334,2,1,0.5499359965324402,3.890289545059204,0.266035242183523,0.0,1.015303879838769,0.0,3.237724376958795e-05,0.0,0,0,0
64,1890.973053265218,2010-08-18 11:30:25,1770.8958278790988,2,1,0.5501165986061096,3.891260862350464,0.270622014303176,0.0,1.033150097179665,0.0,3.237724376958795e-05,0.0,0,0,0
65,1920.988285349027,2010-08-18 11:30:55,1800.9110599528826,2,1,0.5501165986061096,3.8920702934265137,0.275208810779149,0.0,1.051000535287611,0.0,0.0,0.0,0,0,0
66,1951.003510254946,2010-08-18 11:31:25,1830.926284858802,2,1,0.5501165986061096,3.8928797245025635,0.279795667325914,0.0,1.068855018890754,0.0,3.237724376958795e-05,0.0,0,0,0
67,1981.0187771154292,2010-08-18 11:31:55,1860.941551739335,2,1,0.5501165986061096,3.8936891555786133,0.284382559464597,0.0,1.086713346534446,0.0,0.0,0.0,0,0,0
68,2011.0338358722536,2010-08-18 11:32:25,1890.956610491147,2,1,0.5501165986061096,3.894498586654663,0.28896948287658,0.0,1.104575387434815,0.0,3.237724376958795e-05,0.0,0,0,0
69,2041.049030006481,2010-08-18 11:32:55,1920.9718046404112,2,1,0.5501165986061096,3.895146131515503,0.293556371497433,0.0,1.122440315778677,0.0,3.237724376958795e-05,0.0,0,0,0
70,2071.064337809004,2010-08-18 11:33:25,1950.9871124128597,2,1,0.5499359965324402,3.8957936763763428,0.298143309669215,0.0,1.140308528978637,0.0,3.237724376958795e-05,0.0,0,0,0
71,2101.079510539887,2010-08-18 11:33:55,1981.002285153768,2,1,0.550297200679779,3.8967649936676025,0.302730065951161,0.0,1.158179424671661,0.0,6.47544875391759e-05,0.0,0,0,0
72,2131.0946938270795,2010-08-18 11:34:25,2011.017468445973,2,1,0.5501165986061096,3.8970887660980225,0.307316934270339,0.0,1.176054008570252,0.0,0.0,0.0,0,0,0
73,2161.1097567643233,2010-08-18 11:34:55,2041.0325313782043,2,1,0.5501165986061096,3.8980600833892822,0.311903702704561,0.0,1.193931252109767,0.0,6.47544875391759e-05,0.0,0,0,0
74,2191.1249497958015,2010-08-18 11:35:25,2071.047724399658,2,1,0.5501165986061096,3.898545742034912,0.316490514530383,0.0,1.211811856114946,0.0,3.237724376958795e-05,0.0,0,0,0
75,2221.140135544128,2010-08-18 11:35:55,2101.062910188084,2,1,0.5501165986061096,3.899355173110962,0.321077311160953,0.0,1.229695515196502,0.0,0.0,0.0,0,0,0
76,2251.1553542445818,2010-08-18 11:36:25,2131.078128883525,2,1,0.5499359965324402,3.899840831756592,0.325664116250244,0.0,1.247582273730106,0.0,-3.237724376958795e-05,0.0,0,0,0
77,2281.1704977776953,2010-08-18 11:36:55,2161.0932723915757,2,1,0.5501165986061096,3.9006502628326416,0.330250912473184,0.0,1.265471871510047,0.0,0.0,0.0,0,0,0
78,2311.1856993253987,2010-08-18 11:37:25,2191.1084739392795,2,1,0.5501165986061096,3.9012978076934814,0.334837679047716,0.0,1.283364489142527,0.0,6.47544875391759e-05,0.0,0,0,0
79,2341.2008646778927,2010-08-18 11:37:55,2221.1236392917735,2,1,0.5501165986061096,3.9019453525543213,0.339424451035582,0.0,1.30126017132651,0.0,0.0,0.0,0,0,0
80,2371.21605654146,2010-08-18 11:38:25,2251.138831145316,2,1,0.5501165986061096,3.902592897415161,0.344011182485812,0.0,1.31915877091334,0.0,0.0,0.0,0,0,0
81,2401.231353396699,2010-08-18 11:38:55,2281.154128020605,2,1,0.5501165986061096,3.903078556060791,0.34859803401079,0.0,1.3370609077343,0.0,-6.47544875391759e-05,0.0,0,0,0
82,2431.246593931571,2010-08-18 11:39:25,2311.169368565502,2,1,0.550297200679779,3.904049873352051,0.353184885426362,0.0,1.35496625288257,0.0,3.237724376958795e-05,0.0,0,0,0
83,2461.2616104882195,2010-08-18 11:39:55,2341.184385127163,2,1,0.5501165986061096,3.9046974182128906,0.357771771719415,0.0,1.372874966922572,0.0,3.237724376958795e-05,0.0,0,0,0
84,2491.276848035646,2010-08-18 11:40:25,2371.1996226395013,2,1,0.5501165986061096,3.9051830768585205,0.362358597572462,0.0,1.39078667287847,0.0,-3.237724376958795e-05,0.0,0,0,0
85,2521.2919696090285,2010-08-18 11:40:55,2401.214744247972,2,1,0.5501165986061096,3.9061543941497803,0.366945391491864,0.0,1.408701583428236,0.0,3.237724376958795e-05,0.0,0,0,0
86,2551.3072949552766,2010-08-18 11:41:25,2431.2300695791823,2,1,0.5501165986061096,3.90696382522583,0.371532145000743,0.0,1.426619787911334,0.0,3.237724376958795e-05,0.0,0,0,0
87,2581.322979331336,2010-08-18 11:41:55,2461.2457539452175,2,1,0.550297200679779,3.90777325630188,0.376118982512674,0.0,1.444541855754025,0.0,0.0,0.0,0,0,0
88,2611.3377376293256,2010-08-18 11:42:25,2491.260512243206,2,1,0.550297200679779,3.9085826873779297,0.380705713963245,0.0,1.462466961878742,0.0,6.47544875391759e-05,0.0,0,0,0
89,2641.3527853285914,2010-08-18 11:42:55,2521.275559977559,2,1,0.5499359965324402,3.9090683460235596,0.385292419945159,0.0,1.480395626184056,0.0,-3.237724376958795e-05,0.0,0,0,0
90,2671.367993417598,2010-08-18 11:43:25,2551.290768086616,2,1,0.5497553944587708,3.9098777770996094,0.389879270416711,0.0,1.498328637808527,0.0,0.0,0.0,0,0,0
91,2701.3831281938865,2010-08-18 11:43:55,2581.3059028629045,2,1,0.5501165986061096,3.910849094390869,0.394466078708448,0.0,1.516265070455135,0.0,0.0,0.0,0,0,0
92,2731.3983122379655,2010-08-18 11:44:25,2611.3210868518454,2,1,0.550297200679779,3.911658525466919,0.399052914436832,0.0,1.534205457399158,0.0,3.237724376958795e-05,0.0,0,0,0
93,2761.4134993747525,2010-08-18 11:44:55,2641.3362739936456,2,1,0.5501165986061096,3.9124679565429688,0.403639697935767,0.0,1.552149514396397,0.0,3.237724376958795e-05,0.0,0,0,0
94,2791.428727348318,2010-08-18 11:45:25,2671.351501992274,2,1,0.5499359965324402,3.9132773876190186,0.408226486794808,0.0,1.570097545221426,0.0,0.0,0.0,0,0,0
95,2821.4438919339,2010-08-18 11:45:55,2701.366666552793,2,1,0.550297200679779,3.914410352706909,0.412813326952931,0.0,1.588049905778211,0.0,3.237724376958795e-05,0.0,0,0,0
96,2851.459068724902,2010-08-18 11:46:25,2731.381843358833,2,1,0.550297200679779,3.915381669998169,0.417400158437397,0.0,1.606006474588292,0.0,6.47544875391759e-05,0.0,0,0,0
97,2881.4742746986367,2010-08-18 11:46:55,2761.3970493125175,2,1,0.5497553944587708,3.915867328643799,0.421987016827112,0.0,1.623967200252222,0.0,-3.237724376958795e-05,0.0,0,0,0
98,2911.489424306891,2010-08-18 11:47:25,2791.412198920772,2,1,0.5501165986061096,3.9173243045806885,0.426573828014525,0.0,1.64193218383211,0.0,6.47544875391759e-05,0.0,0,0,0
99,2941.5047232272773,2010-08-18 11:47:55,2821.4274978461704,2,1,0.5501165986061096,3.9181337356567383,0.431160641122041,0.0,1.659901670880389,0.0,3.237724376958795e-05,0.0,0,0,0
100,2971.519786495345,2010-08-18 11:48:25,2851.442561109226,2,1,0.5499359965324402,3.919105052947998,0.435747418941711,0.0,1.677875492340799,0.0,0.0,0.0,0,0,0
101,3001.5349754316176,2010-08-18 11:48:55,2881.457750145748,2,1,0.550297200679779,3.9202382564544678,0.440334249639714,0.0,1.695854233164232,0.0,3.237724376958795e-05,0.0,0,0,0
102,3031.5501610847064,2010-08-18 11:49:25,2911.4729356985877,2,1,0.5501165986061096,3.9212095737457275,0.444921105589844,0.0,1.713837772075731,0.0,6.47544875391759e-05,0.0,0,0,0
103,3061.565334597539,2010-08-18 11:49:55,2941.488109211419,2,1,0.5501165986061096,3.9221808910369873,0.449507912309431,0.0,1.731825945748439,0.0,0.0,0.0,0,0,0
104,3091.5831933528207,2010-08-18 11:50:25,2971.505967966702,2,1,0.5501165986061096,3.923475980758667,0.454095074935435,0.0,1.749820515607741,0.0,6.47544875391759e-05,0.0,0,0,0
105,3121.5958327849444,2010-08-18 11:50:55,3001.5186074088497,2,1,0.5501165986061096,3.9244472980499268,0.458681517771784,0.0,1.767817249271678,0.0,3.237724376958795e-05,0.0,0,0,0
106,3151.6109022634905,2010-08-18 11:51:25,3031.5336768773714,2,1,0.5501165986061096,3.9254186153411865,0.463268326414826,0.0,1.785820624416165,0.0,0.0,0.0,0,0,0
107,3181.6260744229494,2010-08-18 11:51:55,3061.548849041843,2,1,0.5501165986061096,3.926713705062866,0.46785513129363,0.0,1.803829090757285,0.0,0.0,0.0,0,0,0
108,3211.6412654895307,2010-08-18 11:52:25,3091.5640401034116,2,1,0.5501165986061096,3.927846908569336,0.472441924202895,0.0,1.821842859852225,0.0,3.237724376958795e-05,0.0,0,0,0
109,3241.656439563762,2010-08-18 11:52:55,3121.579214177643,2,1,0.5501165986061096,3.9289801120758057,0.477028671162198,0.0,1.839861915065553,0.0,0.0,0.0,0,0,0
110,3271.6717740828713,2010-08-18 11:53:25,3151.5945486967516,2,1,0.5499359965324402,3.9302752017974854,0.481615513841502,0.0,1.857886986991639,0.0,0.0,0.0,0,0,0
111,3301.6869612497335,2010-08-18 11:53:55,3181.6097358736392,2,1,0.5499359965324402,3.931570291519165,0.486202372732833,0.0,1.875917747768107,0.0,3.237724376958795e-05,0.0,0,0,0
112,3331.7021285921865,2010-08-18 11:54:25,3211.624903206068,2,1,0.5499359965324402,3.9328653812408447,0.490789136177125,0.0,1.89395384006896,0.0,3.237724376958795e-05,0.0,0,0,0
113,3361.7172948168545,2010-08-18 11:54:55,3241.640069430735,2,1,0.550297200679779,3.9341604709625244,0.49537597145381,0.0,1.911996088394041,0.0,3.237724376958795e-05,0.0,0,0,0
114,3391.7326679221324,2010-08-18 11:55:25,3271.655442541025,2,1,0.5501165986061096,3.935617446899414,0.499962891513587,0.0,1.930044700192545,0.0,3.237724376958795e-05,0.0,0,0,0
115,3421.7475604646997,2010-08-18 11:55:55,3301.6703351086553,2,1,0.5501165986061096,3.9369125366210938,0.504549690591645,0.0,1.948098835737447,0.0,9.713172767078504e-05,0.0,0,0,0
116,3451.762750734295,2010-08-18 11:56:25,3331.685525353188,2,1,0.5501165986061096,3.9382076263427734,0.509136532370876,0.0,1.966159408467491,0.0,3.237724376958795e-05,0.0,0,0,0
117,3481.7779247734384,2010-08-18 11:56:55,3361.700699417394,2,1,0.5501165986061096,3.939502716064453,0.513723380929769,0.0,1.984226411849801,0.0,3.237724376958795e-05,0.0,0,0,0
118,3511.793162330889,2010-08-18 11:57:25,3391.7159369698325,2,1,0.550297200679779,3.9409596920013428,0.51831022682344,0.0,2.002299932007907,0.0,3.237724376958795e-05,0.0,0,0,0
119,3541.8082960495417,2010-08-18 11:57:55,3421.731070663423,2,1,0.5501165986061096,3.9424166679382324,0.522897045536075,0.0,2.020379891551935,0.0,0.0,0.0,0,0,0
120,3571.823490409331,2010-08-18 11:58:25,3451.746265023211,2,1,0.550297200679779,3.943873643875122,0.527483850634406,0.0,2.03846656241952,0.0,3.237724376958795e-05,0.0,0,0,0
121,3601.838808647864,2010-08-18 11:58:56,3481.761583266757,2,1,0.550297200679779,3.9454925060272217,0.532070733497914,0.0,2.056560318188473,0.0,6.47544875391759e-05,0.0,0,0,0
122,3631.8540862751806,2010-08-18 11:59:26,3511.7768608940746,2,1,0.5501165986061096,3.9467875957489014,0.536657664089151,0.0,2.074661161346667,0.0,3.237724376958795e-05,0.0,0,0,0
123,3661.8691506610353,2010-08-18 11:59:56,3541.791925274916,2,1,0.550297200679779,3.948568344116211,0.54124455046958,0.0,2.092768759356639,0.0,6.47544875391759e-05,0.0,0,0,0
124,3691.8842131321167,2010-08-18 12:00:26,3571.8069877459975,2,1,0.5501165986061096,3.9500253200531006,0.545831426181621,0.0,2.110883467658567,0.0,3.237724376958795e-05,0.0,0,0,0
125,3721.899530127552,2010-08-18 12:00:56,3601.82230479657,2,1,0.550297200679779,3.95180606842041,0.55041823903815,0.0,2.129005152658085,0.0,6.47544875391759e-05,0.0,0,0,0
126,3751.9146266585217,2010-08-18 12:01:26,3631.8374012724025,2,1,0.5501165986061096,3.9532630443573,0.555004984126424,0.0,2.147133809242035,0.0,6.47544875391759e-05,0.0,0,0,0
127,3781.9298011487895,2010-08-18 12:01:56,3661.8525757626694,2,1,0.5501165986061096,3.9548819065093994,0.559591809213737,0.0,2.165270203822417,0.0,6.47544875391759e-05,0.0,0,0,0
128,3811.9449870575154,2010-08-18 12:02:26,3691.867761676409,2,1,0.5501165986061096,3.956338882446289,0.564178540458939,0.0,2.183413646908214,0.0,0.0,0.0,0,0,0
129,3841.96017782836,2010-08-18 12:02:56,3721.88295244224,2,1,0.5501165986061096,3.9579577445983887,0.56876530096344,0.0,2.201564595231532,0.0,3.237724376958795e-05,0.0,0,0,0
130,3871.975367180669,2010-08-18 12:03:26,3751.898141794549,2,1,0.5499359965324402,3.9595766067504883,0.573352064714704,0.0,2.219723199280875,0.0,0.0,0.0,0,0,0
131,3901.9906674845033,2010-08-18 12:03:56,3781.913442123446,2,1,0.5501165986061096,3.961357355117798,0.577938850729138,0.0,2.237889601456997,0.0,3.237724376958795e-05,0.0,0,0,0
132,3932.005750576979,2010-08-18 12:04:26,3811.9285252109103,2,1,0.5499359965324402,3.9631381034851074,0.582525604961212,0.0,2.256063598088208,0.0,9.713172767078504e-05,0.0,0,0,0
133,3962.0209191023814,2010-08-18 12:04:56,3841.943693716262,2,1,0.5501165986061096,3.964918851852417,0.587112385146447,0.0,2.274245626590817,0.0,6.47544875391759e-05,0.0,0,0,0
134,3992.0361313667945,2010-08-18 12:05:26,3871.9589059806754,2,1,0.5501165986061096,3.9666996002197266,0.591699205358817,0.0,2.292435929291935,0.0,6.47544875391759e-05,0.0,0,0,0
135,4022.05148198603,2010-08-18 12:05:56,3901.974256604923,2,1,0.5499359965324402,3.968318462371826,0.596285971818888,0.0,2.310634140505576,0.0,3.237724376958795e-05,0.0,0,0,0
136,4052.0664904926152,2010-08-18 12:06:26,3931.9892651115088,2,1,0.5501165986061096,3.9702610969543457,0.600872725745015,0.0,2.328840603062889,0.0,6.47544875391759e-05,0.0,0,0,0
137,4082.0817663856105,2010-08-18 12:06:56,3962.004541004504,2,1,0.5501165986061096,3.9720418453216553,0.605459500334402,0.0,2.347055574227539,0.0,3.237724376958795e-05,0.0,0,0,0
138,4112.096878329995,2010-08-18 12:07:26,3992.0196529639256,2,1,0.5501165986061096,3.973984479904175,0.610046251598827,0.0,2.365278953912947,0.0,6.47544875391759e-05,0.0,0,0,0
139,4142.112091100669,2010-08-18 12:07:56,4022.0348657446257,2,1,0.5501165986061096,3.9757652282714844,0.614633064486327,0.0,2.383511258865004,0.0,3.237724376958795e-05,0.0,0,0,0
140,4172.127246748977,2010-08-18 12:08:26,4052.0500213728833,2,1,0.5499359965324402,3.977707862854004,0.619219922611765,0.0,2.4017524689613,0.0,3.237724376958795e-05,0.0,0,0,0
141,4202.142436537373,2010-08-18 12:08:56,4082.0652111562663,2,1,0.5501165986061096,3.9796504974365234,0.623806686985259,0.0,2.420001642360472,0.0,3.237724376958795e-05,0.0,0,0,0
142,4232.157652180206,2010-08-18 12:09:26,4112.0804267991,2,1,0.5501165986061096,3.981593132019043,0.62839337199898,0.0,2.438259646425254,0.0,6.47544875391759e-05,0.0,0,0,0
143,4262.1729424490295,2010-08-18 12:09:56,4142.095717072936,2,1,0.5501165986061096,3.9835357666015625,0.632980060771967,0.0,2.456526473301125,0.0,6.47544875391759e-05,0.0,0,0,0
144,4292.188117084661,2010-08-18 12:10:26,4172.110891708566,2,1,0.5501165986061096,3.985478401184082,0.637566730457327,0.0,2.474802044463753,0.0,3.237724376958795e-05,0.0,0,0,0
145,4322.203178152244,2010-08-18 12:10:56,4202.1259527761495,2,1,0.550297200679779,3.9872591495513916,0.642153349135126,0.0,2.493086142240006,0.0,3.237724376958795e-05,0.0,0,0,0
146,4352.218604189445,2010-08-18 12:11:26,4232.141378843425,2,1,0.5501165986061096,3.989201784133911,0.646740137929095,0.0,2.511379568033095,0.0,3.237724376958795e-05,0.0,0,0,0
147,4382.233561723992,2010-08-18 12:11:56,4262.156336342885,2,1,0.5501165986061096,3.9911444187164307,0.651326745302413,0.0,2.529680906012013,0.0,6.47544875391759e-05,0.0,0,0,0
148,4412.248735221787,2010-08-18 12:12:26,4292.171509835667,2,1,0.5501165986061096,3.99308705329895,0.655913435642731,0.0,2.547991238313072,0.0,6.47544875391759e-05,0.0,0,0,0
149,4442.264003520855,2010-08-18 12:12:56,4322.186778290123,2,1,0.5501165986061096,3.9948675632476807,0.660500160960457,0.0,2.566310099072783,0.0,3.237724376958795e-05,0.0,0,0,0
150,4472.279118467723,2010-08-18 12:13:26,4352.201893086616,2,1,0.5501165986061096,3.9966483116149902,0.665086895301533,0.0,2.584637386218183,0.0,6.47544875391759e-05,0.0,0,0,0
151,4502.2944306762265,2010-08-18 12:13:56,4382.21720529512,2,1,0.5501165986061096,3.9984290599823,0.669673623569006,0.0,2.602973038239083,0.0,3.237724376958795e-05,0.0,0,0,0
152,4532.30960839454,2010-08-18 12:14:26,4412.232383013434,2,1,0.5501165986061096,4.000371932983398,0.674260339954601,0.0,2.62131677237344,0.0,6.47544875391759e-05,0.0,0,0,0
153,4562.32467279042,2010-08-18 12:14:56,4442.2474474043,2,1,0.5501165986061096,4.001990795135498,0.678847027790739,0.0,2.639668813206181,0.0,0.0,0.0,0,0,0
154,4592.339859250519,2010-08-18 12:15:26,4472.262633869414,2,1,0.550297200679779,4.003933429718018,0.683433665107997,0.0,2.658028985505232,0.0,6.47544875391759e-05,0.0,0,0,0
155,4622.355043189336,2010-08-18 12:15:56,4502.277817803217,2,1,0.5499359965324402,4.005713939666748,0.688020296206029,0.0,2.676397468893689,0.0,3.23295607813634e-05,0.0,0,0,0
156,4652.370213368861,2010-08-18 12:16:26,4532.292987982742,2,1,0.5501165986061096,4.007656574249268,0.692606982924342,0.0,2.694774535006081,0.0,6.47544875391759e-05,0.0,0,0,0
157,4682.385391057099,2010-08-18 12:16:56,4562.308165675992,2,1,0.5501165986061096,4.009275436401367,0.697193654400955,0.0,2.713159988950452,0.0,6.47544875391759e-05,0.0,0,0,0
158,4712.400709395882,2010-08-18 12:17:26,4592.323484009763,2,1,0.5499359965324402,4.011056423187256,0.701780334656465,0.0,2.731553987030278,0.0,3.24249267578125e-05,0.0,0,0,0
159,4742.415758338247,2010-08-18 12:17:56,4622.338532957139,2,1,0.5501165986061096,4.013160705566406,0.706367063150473,0.0,2.749956749035103,0.0,3.23295607813634e-05,0.0,0,0,0
160,4772.430959204251,2010-08-18 12:18:26,4652.353733828157,2,1,0.5501165986061096,4.014941692352295,0.710953830642127,0.0,2.768368337947411,0.0,3.24249267578125e-05,0.0,0,0,0
161,4802.446124772281,2010-08-18 12:18:56,4682.368899396188,2,1,0.5501165986061096,4.0168843269348145,0.71554048930673,0.0,2.786788174353293,0.0,3.24249267578125e-05,0.0,0,0,0
162,4832.461352951359,2010-08-18 12:19:26,4712.384127570252,2,1,0.5501165986061096,4.018988609313965,0.720127184086115,0.0,2.805217009311128,0.0,6.47544875391759e-05,0.0,0,0,0
163,4862.476612258015,2010-08-18 12:19:56,4742.399386866883,2,1,0.550297200679779,4.020931243896484,0.724713843741563,0.0,2.823654496434055,0.0,9.70840483205393e-05,0.0,0,0,0
164,4892.491673801786,2010-08-18 12:20:26,4772.414448425691,2,1,0.550297200679779,4.022873878479004,0.729300538473746,0.0,2.842101288409779,0.0,6.47544875391759e-05,0.0,0,0,0
165,4922.506853946145,2010-08-18 12:20:56,4802.429628570052,2,1,0.5501165986061096,4.024816513061523,0.733887204307239,0.0,2.860557056043408,0.0,6.47544875391759e-05,0.0,0,0,0
166,4952.522046371113,2010-08-18 12:21:26,4832.444820984993,2,1,0.550297200679779,4.026921272277832,0.738473863651297,0.0,2.879022086485561,0.0,6.47544875391759e-05,0.0,0,0,0
167,4982.537235442722,2010-08-18 12:21:56,4862.460010081664,2,1,0.5501165986061096,4.028863906860352,0.743060525096304,0.0,2.897496429506427,0.0,3.24249267578125e-05,0.0,0,0,0
168,5012.55503024361,2010-08-18 12:22:26,4892.477804867516,2,1,0.5501165986061096,4.030968189239502,0.747647655472482,0.0,2.915982068003094,0.0,3.23295607813634e-05,0.0,0,0,0
169,5042.567660141972,2010-08-18 12:22:56,4922.490434851091,2,1,0.550297200679779,4.0330729484558105,0.752234034138682,0.0,2.934474251732578,0.0,3.24249267578125e-05,0.0,0,0,0
170,5072.582907513884,2010-08-18 12:23:26,4952.505682137789,2,1,0.550297200679779,4.035177230834961,0.756820778303806,0.0,2.952977601814515,0.0,6.47544875391759e-05,0.0,0,0,0
171,5102.597948210698,2010-08-18 12:23:56,4982.520722849641,2,1,0.5501165986061096,4.037281513214111,0.761407429430455,0.0,2.971490411066071,0.0,6.47544875391759e-05,0.0,0,0,0
172,5132.613131853777,2010-08-18 12:24:26,5012.535906467658,2,1,0.5504778623580933,4.039547920227051,0.765994226092384,0.0,2.990013741676262,0.0,3.23295607813634e-05,0.0,0,0,0
173,5162.628311832725,2010-08-18 12:24:56,5042.551086446606,2,1,0.5501165986061096,4.041652679443359,0.770580956190733,0.0,3.008546644000346,0.0,6.47544875391759e-05,0.0,0,0,0
174,5192.643521731241,2010-08-18 12:25:26,5072.5662963751965,2,1,0.550297200679779,4.043919086456299,0.775167649876609,0.0,3.027089581861541,0.0,9.71794142969884e-05,0.0,0,0,0
175,5222.658680988544,2010-08-18 12:25:56,5102.581455627487,2,1,0.550297200679779,4.046185493469238,0.779754397156916,0.0,3.045642968597575,0.0,6.47544875391759e-05,0.0,0,0,0
176,5252.673861959965,2010-08-18 12:26:26,5132.596636578858,2,1,0.5501165986061096,4.048289775848389,0.78434110900693,0.0,3.06420655076797,0.0,3.23295607813634e-05,0.0,0,0,0
177,5282.689192378855,2010-08-18 12:26:56,5162.611967007773,2,1,0.5501165986061096,4.050556182861328,0.78892784650185,0.0,3.08278064910594,0.0,6.47544875391759e-05,0.0,0,0,0
178,5312.704481519868,2010-08-18 12:27:26,5192.627256133749,2,1,0.5499359965324402,4.052984714508057,0.793514528761301,0.0,3.101365033510555,0.0,6.47544875391759e-05,0.0,0,0,0
179,5342.7194206886425,2010-08-18 12:27:56,5222.642195312548,2,1,0.5501165986061096,4.055412769317627,0.798101214863269,0.0,3.119960148126594,0.0,6.47544875391759e-05,0.0,0,0,0
180,5372.734586682735,2010-08-18 12:28:26,5252.657361296617,2,1,0.5501165986061096,4.0575175285339355,0.802688016524697,0.0,3.13856649206923,0.0,6.47544875391759e-05,0.0,0,0,0
181,5402.7497915286585,2010-08-18 12:28:56,5282.672566172615,2,1,0.5501165986061096,4.060107707977295,0.807274809048878,0.0,3.157183715883753,0.0,6.47544875391759e-05,0.0,0,0,0
182,5432.764962023971,2010-08-18 12:29:26,5312.687736637851,2,1,0.5501165986061096,4.062211990356445,0.811861539317587,0.0,3.175811310938387,0.0,6.47544875391759e-05,0.0,0,0,0
183,5462.780250774009,2010-08-18 12:29:56,5342.703025397915,2,1,0.5501165986061096,4.064964294433594,0.816448274137809,0.0,3.194450185930769,0.0,6.47544875391759e-05,0.0,0,0,0
184,5492.795290969573,2010-08-18 12:30:26,5372.718065608517,2,1,0.5499359965324402,4.067230701446533,0.821034974889204,0.0,3.213100217646542,0.0,6.47544875391759e-05,0.0,0,0,0
185,5522.810472231718,2010-08-18 12:30:57,5402.733246870662,2,1,0.5499359965324402,4.069820880889893,0.825621651801743,0.0,3.23176156473928,0.0,3.24249267578125e-05,0.0,0,0,0
186,5552.826061210018,2010-08-18 12:31:27,5432.748835833925,2,1,0.5501165986061096,4.072411060333252,0.830208482763703,0.0,3.250435087172793,0.0,6.47544875391759e-05,0.0,0,0,0
187,5582.840967211129,2010-08-18 12:31:57,5462.763741835035,2,1,0.5501165986061096,4.074839115142822,0.834795137893279,0.0,3.269119594305973,0.0,3.23295607813634e-05,0.0,0,0,0
188,5612.8560714864,2010-08-18 12:32:27,5492.7788461103055,2,1,0.550297200679779,4.077591419219971,0.839381862019436,0.0,3.287816230573589,0.0,9.71794142969884e-05,0.0,0,0,0
189,5642.871207159924,2010-08-18 12:32:57,5522.793981773806,2,1,0.5501165986061096,4.08018159866333,0.843968601681622,0.0,3.306524908564237,0.0,9.71794142969884e-05,0.0,0,0,0
190,5672.886388868182,2010-08-18 12:33:27,5552.809163487076,2,1,0.5499359965324402,4.0827717781066895,0.848555388757769,0.0,3.325245780665597,0.0,6.47544875391759e-05,0.0,0,0,0
191,5702.901560205592,2010-08-18 12:33:57,5582.824334819474,2,1,0.5499359965324402,4.08552360534668,0.853142107475118,0.0,3.343978618753984,0.0,9.70840483205393e-05,0.0,0,0,0
192,5732.916779196771,2010-08-18 12:34:27,5612.839553840726,2,1,0.5501165986061096,4.088113784790039,0.857728862869115,0.0,3.362723939779273,0.0,6.47544875391759e-05,0.0,0,0,0
193,5762.932041916934,2010-08-18 12:34:57,5642.854816535828,2,1,0.5501165986061096,4.0908660888671875,0.862315682075359,0.0,3.381482003349219,0.0,6.47544875391759e-05,0.0,0,0,0
194,5792.947111821542,2010-08-18 12:35:27,5672.869886435424,2,1,0.5501165986061096,4.093617916107178,0.866902429042255,0.0,3.400252266103207,0.0,6.47544875391759e-05,0.0,0,0,0
195,5822.962426486169,2010-08-18 12:35:57,5702.88520110005,2,1,0.5501165986061096,4.096370220184326,0.871489183732399,0.0,3.419035359315145,0.0,3.24249267578125e-05,0.0,0,0,0
196,5852.977473649097,2010-08-18 12:36:27,5732.900248273004,2,1,0.5501165986061096,4.099122047424316,0.876075916385289,0.0,3.437831253055489,0.0,6.47544875391759e-05,0.0,0,0,0
197,5882.992641477763,2010-08-18 12:36:57,5762.915416091644,2,1,0.5499359965324402,4.102035999298096,0.88066275060909,0.0,3.456640634743552,0.0,3.23295607813634e-05,0.0,0,0,0
198,5913.007880889836,2010-08-18 12:37:27,5792.930655513742,2,1,0.550297200679779,4.105112075805664,0.885249511202083,0.0,3.475462803388095,0.0,9.71794142969884e-05,0.0,0,0,0
199,5943.023144181425,2010-08-18 12:37:57,5822.9459188003175,2,1,0.550297200679779,4.107863903045654,0.889836286597594,0.0,3.494298415440838,0.0,6.47544875391759e-05,0.0,0,0,0
200,5973.038321087714,2010-08-18 12:38:27,5852.961095701595,2,1,0.5501165986061096,4.110939979553223,0.894423103009628,0.0,3.513147700618044,0.0,6.47544875391759e-05,0.0,0,0,0
201,6003.05337266665,2010-08-18 12:38:57,5882.97614728053,2,1,0.5499359965324402,4.113853931427002,0.899009864362487,0.0,3.532010270777361,0.0,6.47544875391759e-05,0.0,0,0,0
202,6033.068702388802,2010-08-18 12:39:27,5912.991477012709,2,1,0.5501165986061096,4.116929531097412,0.903596680346121,0.0,3.550886831621096,0.0,9.71794142969884e-05,0.0,0,0,0
203,6063.083703090938,2010-08-18 12:39:57,5943.006477724868,2,1,0.5501165986061096,4.120005130767822,0.908183497024631,0.0,3.569777271725331,0.0,9.70840483205393e-05,0.0,0,0,0
204,6093.098887335516,2010-08-18 12:40:27,5973.02166197446,2,1,0.5501165986061096,4.122757434844971,0.912770383442507,0.0,3.588682012680367,0.0,3.24249267578125e-05,0.0,0,0,0
205,6123.114064246818,2010-08-18 12:40:57,6003.036838860699,2,1,0.5501165986061096,4.126156806945801,0.917357283416629,0.0,3.607600900045444,0.0,9.70840483205393e-05,0.0,0,0,0
206,6153.129290190323,2010-08-18 12:41:27,6033.052064834279,2,1,0.5501165986061096,4.129232883453369,0.921944109732221,0.0,3.626533808488099,0.0,9.71794142969884e-05,0.0,0,0,0
207,6183.144630343474,2010-08-18 12:41:57,6063.06740500748,2,1,0.5501165986061096,4.132470607757568,0.92653091477138,0.0,3.645481128234585,0.0,9.71794142969884e-05,0.0,0,0,0
208,6213.159714012389,2010-08-18 12:42:27,6093.082488636293,2,1,0.550297200679779,4.135708332061768,0.931117607249405,0.0,3.664442571282556,0.0,0.0001295089750783518,0.0,0,0,0
209,6243.174790964561,2010-08-18 12:42:57,6123.097565603504,2,1,0.550297200679779,4.138946056365967,0.935704347794138,0.0,3.683418999973665,0.0,9.71794142969884e-05,0.0,0,0,0
210,6273.189969424723,2010-08-18 12:43:27,6153.112744038604,2,1,0.550297200679779,4.142183780670166,0.940291104024462,0.0,3.702410457493785,0.0,9.71794142969884e-05,0.0,0,0,0
211,6303.205156080311,2010-08-18 12:43:57,6183.1279306941915,2,1,0.5501165986061096,4.145745277404785,0.944877886192791,0.0,3.721417223566169,0.0,0.0001619339018361643,0.0,0,0,0
212,6333.220343357448,2010-08-18 12:44:27,6213.143117971328,2,1,0.5501165986061096,4.148983001708984,0.949464643323433,0.0,3.740439348658887,0.0,9.71794142969884e-05,0.0,0,0,0
213,6363.235501953101,2010-08-18 12:44:57,6243.158276577007,2,1,0.5501165986061096,4.1520586013793945,0.954051401335113,0.0,3.759476872542129,0.0,6.47544875391759e-05,0.0,0,0,0
214,6393.250696678802,2010-08-18 12:45:27,6273.173471297696,2,1,0.5504778623580933,4.155943870544434,0.958638120577242,0.0,3.778529721160628,0.0,0.00016183852858375758,0.0,0,0,0
215,6423.2658720863565,2010-08-18 12:45:57,6303.188646700238,2,1,0.5501165986061096,4.159181594848633,0.963224852082562,0.0,3.797598310607941,0.0,9.70840483205393e-05,0.0,0,0,0
216,6453.281078897177,2010-08-18 12:46:27,6333.203853536121,2,1,0.5501165986061096,4.162419319152832,0.967811583046224,0.0,3.816682609106822,0.0,6.47544875391759e-05,0.0,0,0,0
217,6483.2963681785395,2010-08-18 12:46:57,6363.219142797434,2,1,0.5501165986061096,4.16581916809082,0.972398391698781,0.0,3.835783181824384,0.0,6.47544875391759e-05,0.0,0,0,0
218,6513.3114393212345,2010-08-18 12:47:27,6393.234213935116,2,1,0.5501165986061096,4.16954231262207,0.976985110485306,0.0,3.854899435019051,0.0,9.70840483205393e-05,0.0,0,0,0
219,6543.326585315482,2010-08-18 12:47:57,6423.249359934374,2,1,0.550297200679779,4.1731038093566895,0.981571920276132,0.0,3.874032279332893,0.0,9.70840483205393e-05,0.0,0,0,0
220,6573.341784091277,2010-08-18 12:48:27,6453.264558715182,2,1,0.5501165986061096,4.176503658294678,0.986158736049691,0.0,3.893181526022632,0.0,3.24249267578125e-05,0.0,0,0,0
221,6603.3569827166975,2010-08-18 12:48:57,6483.27975733559,2,1,0.550297200679779,4.180388927459717,0.990745512774786,0.0,3.912347116266789,0.0,0.0001295089750783518,0.0,0,0,0
222,6633.3721511568865,2010-08-18 12:49:27,6513.294925775779,2,1,0.5501165986061096,4.183950424194336,0.995332335258209,0.0,3.931529497012503,0.0,9.71794142969884e-05,0.0,0,0,0
223,6663.3874462377025,2010-08-18 12:49:57,6543.310220881659,2,1,0.550297200679779,4.187511920928955,0.99991924741104,0.0,3.950728991166228,0.0,9.71794142969884e-05,0.0,0,0,0
224,6693.4026182116995,2010-08-18 12:50:27,6573.325392830594,2,1,0.5501165986061096,4.191235065460205,1.004506831974967,0.0,3.969948305050405,0.0,6.47544875391759e-05,0.0,0,0,0
225,6723.417699379379,2010-08-18 12:50:57,6603.34047399326,2,1,0.550297200679779,4.195120334625244,1.009094330627328,0.0,3.989184356601689,0.0,0.0001295089750783518,0.0,0,0,0
226,6753.432979222219,2010-08-18 12:51:27,6633.355753836099,2,1,0.5501165986061096,4.198681831359863,1.013681889675965,0.0,4.008437871990065,0.0,9.71794142969884e-05,0.0,0,0,0
227,6762.495222550976,2010-08-18 12:51:36,6642.4179971698695,2,1,0.550297200679779,4.200138568878174,1.015066964286167,0.0,4.014254319931358,0.0,0.0001295089750783518,0.0,0,0,0
228,6792.510783817201,2010-08-18 12:52:06,30.015190555307072,3,1,0.0,4.120976448059082,1.015066964286167,0.0,4.014254319931358,0.0,-0.0003561973571777344,0.0,0,0,0
229,6822.525968608142,2010-08-18 12:52:36,60.03037535627256,3,1,0.0,4.110777854919434,1.015066964286167,0.0,4.014254319931358,0.0,-0.00022668838209938258,0.0,0,0,0
230,6852.541143178611,2010-08-18 12:53:06,90.0455499167155,3,1,0.0,4.104626178741455,1.015066964286167,0.0,4.014254319931358,0.0,-0.00019426345534157008,0.0,0,0,0
231,6882.509311855929,2010-08-18 12:53:36,120.01371861408434,3,1,0.0,4.101064682006836,1.015066964286167,0.0,4.014254319931358,0.0,-0.0001295089750783518,0.0,0,0,0
232,6882.509599729184,2010-08-18 12:53:36,2.631558654e-06,4,1,0.9886359572410583,4.199814796447754,1.015066965008849,0.0,4.014254322966487,0.0,0.0,0.0,0,0,0
233,6883.697102371153,2010-08-18 12:53:38,1.187505278540362,4,1,0.9384265542030334,4.199814796447754,1.015382882223706,0.0,4.015581079674504,0.0,0.0,0.0,0,0,0
234,6886.228362911269,2010-08-18 12:53:40,3.718765798605756,4,1,0.8880365490913391,4.199653148651123,1.01602386559947,0.0,4.018273010872816,0.0,-3.23295607813634e-05,0.0,0,0,0
235,6889.806433378819,2010-08-18 12:53:44,7.29683628620562,4,1,0.8380078077316284,4.199814796447754,1.016880593300701,0.0,4.021870998306392,0.0,0.0,0.0,0,0,0
236,6894.415988894489,2010-08-18 12:53:48,11.906391771800488,4,1,0.787979006767273,4.199491024017334,1.017920697586558,0.0,4.026239130234401,0.0,-3.24249267578125e-05,0.0,0,0,0
237,6900.306277541194,2010-08-18 12:53:54,17.79668045359203,4,1,0.7379502654075623,4.199653148651123,1.019168032359774,0.0,4.031477565184925,0.0,0.0,0.0,0,0,0
238,6907.853073523873,2010-08-18 12:54:02,25.343476436271935,4,1,0.6879214644432068,4.199653148651123,1.020660590987139,0.0,4.037745892759319,0.0,-3.23295607813634e-05,0.0,0,0,0
239,6917.774766144713,2010-08-18 12:54:12,35.265169062124066,4,1,0.6378927230834961,4.199653148651123,1.022484254951403,0.0,4.045404773582082,0.0,-3.23295607813634e-05,0.0,0,0,0
240,6931.540491913937,2010-08-18 12:54:26,49.03089481129893,4,1,0.5876833200454712,4.199491024017334,1.024822367028675,0.0,4.055224186400812,0.0,-3.24249267578125e-05,0.0,0,0,0
241,6952.008643174772,2010-08-18 12:54:46,69.49904605709614,4,1,0.5376545786857605,4.199653148651123,1.028013105068561,0.0,4.068624388707248,0.0,-3.23295607813634e-05,0.0,0,0,0
242,6985.836257658562,2010-08-18 12:55:20,103.326660545899,4,1,0.4876258075237274,4.199814796447754,1.032811676087258,0.0,4.088777041684673,0.0,3.23295607813634e-05,0.0,0,0,0
243,7044.179303029332,2010-08-18 12:56:18,161.66970595175667,4,1,0.43759703636169434,4.199491024017334,1.040276642511115,0.0,4.12012816683911,0.0,-6.47544875391759e-05,0.0,0,0,0
244,7133.258565570589,2010-08-18 12:57:47,250.74896856318824,4,1,0.38756826519966125,4.199814796447754,1.050454991642798,0.0,4.16287505872195,0.0,0.0,0.0,0,0,0
245,7248.941743544925,2010-08-18 12:59:43,366.4321464573244,4,1,0.3375394940376282,4.199814796447754,1.062085488880521,0.0,4.211720661751905,0.0,3.23295607813634e-05,0.0,0,0,0
246,7389.455258634456,2010-08-18 13:02:03,506.9456615268053,4,1,0.2875107228755951,4.199814796447754,1.074265871454231,0.0,4.262875682547056,0.0,0.0,0.0,0,0,0
247,7560.98397885331,2010-08-18 13:04:55,678.4743817556833,4,1,0.237481951713562,4.199814796447754,1.086747437215129,0.0,4.315295577200216,0.0,0.0,0.0,0,0,0
248,7777.41841732419,2010-08-18 13:08:31,894.9088202265647,4,1,0.18745318055152893,4.199814796447754,1.099473931358445,0.0,4.368744084284504,0.0,0.0,0.0,0,0,0
249,8069.554721727857,2010-08-18 13:13:24,1187.0451246352447,4,1,0.13742440938949585,4.199653148651123,1.112567704385811,0.0,4.423735128970947,0.0,-3.23295607813634e-05,0.0,0,0,0
250,8518.704187596637,2010-08-18 13:20:53,1636.1945905140503,4,1,0.08739564567804337,4.199814796447754,1.126367088734394,0.0,4.481689467433688,0.0,0.0,0.0,0,0,0
251,9114.476651391018,2010-08-18 13:30:48,2231.967054283368,4,1,0.049828916788101196,4.199814796447754,1.137454903268974,0.0,4.528255888213271,0.0,0.0,0.0,0,0,0
252,9144.49235834114,2010-08-18 13:31:19,30.015196404886023,5,1,0.0,4.192368507385254,1.137454903268974,0.0,4.528255888213271,0.0,-3.23295607813634e-05,0.0,0,0,0
253,9174.491890044772,2010-08-18 13:31:49,60.014728093479135,5,1,0.0,4.191235065460205,1.137454903268974,0.0,4.528255888213271,0.0,-3.24249267578125e-05,0.0,0,0,0
254,9174.679958413322,2010-08-18 13:31:49,0.187641610629569,6,1,-1.9243103452026844e-05,4.191235065460205,1.137454903268974,1.003002e-09,4.528255888213271,4.203817e-09,0.0,0.09166102111339569,0,0,0
255,9179.507983783087,2010-08-18 13:31:54,5.015666980397298,6,1,0.0007031940040178597,4.191073417663574,1.137455862166301,1.08604e-09,4.528259907261308,4.551851e-09,-6.47544875391759e-05,0.09166102111339569,0,0,0
256,9209.522858475206,2010-08-18 13:32:24,30.014491578241156,7,1,-1.099568486213684,4.026273727416992,1.137455862166301,0.009149153451193,4.528259907261308,0.037019356188288,-0.0008741378551349044,0.09166102111339569,0,0,0
257,9239.523105621942,2010-08-18 13:32:54,60.01473870492613,7,1,-1.0993878841400146,4.001828670501709,1.137455862166301,0.018331657652492,4.528259907261308,0.073869017267104,-0.00048570631770417094,0.09166102111339569,0,0,0
258,9269.538255230196,2010-08-18 13:33:24,90.02988832821802,7,1,-1.0997490882873535,3.984992742538452,1.137455862166301,0.027500640211017,4.528259907261308,0.110479578762775,-0.00038852691068314016,0.09166102111339569,0,0,0
259,9299.553434061285,2010-08-18 13:33:54,120.04506713925475,7,1,-1.0997490882873535,3.9722037315368652,1.137455862166301,0.036669537983069,4.528259907261308,0.146956872025838,-0.0003237724304199219,0.09166102111339569,0,0,0
260,9329.568673708944,2010-08-18 13:34:24,150.060306847065,7,1,-1.0993878841400146,3.961519241333008,1.137455862166301,0.045837695393349,4.528259907261308,0.183324723460462,-0.0002590179501567036,0.09166102111339569,0,0,0
261,9359.585053954324,2010-08-18 13:34:54,180.07668705735833,7,1,-1.0997490882873535,3.95180606842041,1.137455862166301,0.055006136706848,4.528259907261308,0.219600596179729,-0.0002590179501567036,0.09166102111339569,0,0,0
262,9389.59916101924,2010-08-18 13:35:24,210.090794112249,7,1,-1.099568486213684,3.9429023265838623,1.137455862166301,0.064173840339827,4.528259907261308,0.255788735524128,-0.0002590179501567036,0.09166102111339569,0,0,0
263,9419.614214232248,2010-08-18 13:35:54,240.1058473102193,7,1,-1.099929690361023,3.9344842433929443,1.137455862166301,0.073341879032626,4.528259907261308,0.29189887388698,-0.00022664069547317922,0.09166102111339569,0,0,0
264,9449.629377539644,2010-08-18 13:36:24,270.1210106226287,7,1,-1.099568486213684,3.9263899326324463,1.137455862166301,0.08250994861192,4.528259907261308,0.327933409221256,-0.00019426345534157008,0.09166102111339569,0,0,0
265,9479.64455982434,2010-08-18 13:36:54,300.13619291233533,7,1,-1.099568486213684,3.918619394302368,1.137455862166301,0.091677954184063,4.528259907261308,0.363894715047192,-0.00016188621520996094,0.09166102111339569,0,0,0
266,9509.659723116698,2010-08-18 13:37:24,330.15135621973224,7,1,-1.099568486213684,3.911010980606079,1.137455862166301,0.100846048438023,4.528259907261308,0.399785289604204,-0.00016188621520996094,0.09166102111339569,0,0,0
267,9539.674958177928,2010-08-18 13:37:54,360.1665912659243,7,1,-1.099568486213684,3.903564214706421,1.137455862166301,0.110014163897697,4.528259907261308,0.435606751941221,-0.00019426345534157008,0.09166102111339569,0,0,0
268,9569.69008994672,2010-08-18 13:38:24,390.18172303471727,7,1,-1.0997490882873535,3.8961174488067627,1.137455862166301,0.119182239260061,4.528259907261308,0.471360336962641,-0.00019426345534157008,0.09166102111339569,0,0,0
269,9599.705417613752,2010-08-18 13:38:54,420.197050721799,7,1,-1.099568486213684,3.8889944553375244,1.137455862166301,0.128350359978532,4.528259907261308,0.507047861618965,-0.00019426345534157008,0.09166102111339569,0,0,0
270,9629.720579938701,2010-08-18 13:39:24,450.21221303672235,7,1,-1.099568486213684,3.881871461868286,1.137455862166301,0.137518471434692,4.528259907261308,0.54266968098773,-0.00019426345534157008,0.09166102111339569,0,0,0
271,9659.735761175783,2010-08-18 13:39:54,480.227394258768,7,1,-1.099568486213684,3.874748468399048,1.137455862166301,0.146686106680931,4.528259907261308,0.578225082139952,-0.00019426345534157008,0.09166102111339569,0,0,0
272,9689.750936257526,2010-08-18 13:40:24,510.2425693354977,7,1,-1.099568486213684,3.8679492473602295,1.137455862166301,0.155853418068707,4.528259907261308,0.613715256294504,-0.00019426345534157008,0.09166102111339569,0,0,0
273,9719.766156030653,2010-08-18 13:40:54,540.2577891386995,7,1,-1.0997490882873535,3.860988140106201,1.137455862166301,0.165021244795842,4.528259907261308,0.649143975137545,-0.00019426345534157008,0.09166102111339569,0,0,0
274,9749.781215419052,2010-08-18 13:41:24,570.2728485120608,7,1,-1.099568486213684,3.8543508052825928,1.137455862166301,0.174189405377032,4.528259907261308,0.684511817812191,-0.00019426345534157008,0.09166102111339569,0,0,0
275,9779.796381212644,2010-08-18 13:41:54,600.2880142956291,7,1,-1.0997490882873535,3.8477134704589844,1.137455862166301,0.18335753043289,4.528259907261308,0.719818442143219,-0.00019426345534157008,0.09166102111339569,0,0,0
276,9809.811564349464,2010-08-18 13:42:24,630.303197432447,7,1,-1.0997490882873535,3.841238021850586,1.137455862166301,0.192525701931099,4.528259907261308,0.755065098346031,-0.00016188621520996094,0.09166102111339569,0,0,0
277,9839.826883956406,2010-08-18 13:42:54,660.318517044403,7,1,-1.099568486213684,3.8347625732421875,1.137455862166301,0.201693930612829,4.528259907261308,0.790252409922494,-0.00016188621520996094,0.09166102111339569,0,0,0
278,9869.84218080162,2010-08-18 13:43:24,690.3338138846048,7,1,-1.0997490882873535,3.828449249267578,1.137455862166301,0.210862137313312,4.528259907261308,0.825381065925974,-0.00019426345534157008,0.09166102111339569,0,0,0
279,9899.857105714866,2010-08-18 13:43:54,720.3487387928375,7,1,-1.099568486213684,3.8222975730895996,1.137455862166301,0.220030246528162,4.528259907261308,0.860451251799294,-0.0001295089750783518,0.09166102111339569,0,0,0
280,9929.872284355479,2010-08-18 13:44:24,750.3639174334495,7,1,-1.099568486213684,3.815984010696411,1.137455862166301,0.229198479349489,4.528259907261308,0.89546510363711,-0.00019426345534157008,0.09166102111339569,0,0,0
281,9959.88748402851,2010-08-18 13:44:54,780.3791171365557,7,1,-1.099568486213684,3.8098323345184326,1.137455862166301,0.238366616219179,4.528259907261308,0.93042207425869,-0.0001295089750783518,0.09166102111339569,0,0,0
282,9989.902671867045,2010-08-18 13:45:24,810.3943049550419,7,1,-1.099568486213684,3.803842544555664,1.137455862166301,0.247534748762002,4.528259907261308,0.965323259317792,-0.00016188621520996094,0.09166102111339569,0,0,0
283,10019.920703949312,2010-08-18 13:45:54,840.4123370373084,7,1,-1.099568486213684,3.7980146408081055,1.137455862166301,0.256703844680614,4.528259907261308,1.000173566045417,-0.0001295089750783518,0.09166102111339569,0,0,0
284,10049.933024667102,2010-08-18 13:46:24,870.4246577550974,7,1,-1.099568486213684,3.792024850845337,1.137455862166301,0.265871176762453,4.528259907261308,1.034963673497157,-0.00019426345534157008,0.09166102111339569,0,0,0
285,10079.948369040772,2010-08-18 13:46:54,900.440002128767,7,1,-1.0997490882873535,3.7863588333129883,1.137455862166301,0.275039425759015,4.528259907261308,1.069704619430343,-0.00016188621520996094,0.09166102111339569,0,0,0
286,10109.963491511387,2010-08-18 13:47:24,930.4551245993861,7,1,-1.0997490882873535,3.7808547019958496,1.137455862166301,0.284207586049812,4.528259907261308,1.104393083079801,-0.00016188621520996094,0.09166102111339569,0,0,0
287,10139.97854943614,2010-08-18 13:47:54,960.4701825191246,7,1,-1.0997490882873535,3.775350570678711,1.137455862166301,0.293375743101436,4.528259907261308,1.139030401464312,-0.0001295089750783518,0.09166102111339569,0,0,0
288,10169.993752818416,2010-08-18 13:48:24,990.4853859014005,7,1,-1.099568486213684,3.7698464393615723,1.137455862166301,0.302543989059645,4.528259907261308,1.173617762843339,-0.0001295089750783518,0.09166102111339569,0,0,0
289,10200.008919674658,2010-08-18 13:48:54,1020.5005527526296,7,1,-1.099568486213684,3.7645041942596436,1.137455862166301,0.311712207799415,4.528259907261308,1.208155919786533,-9.713172767078504e-05,0.09166102111339569,0,0,0
290,10230.024090525856,2010-08-18 13:49:24,1050.515723603828,7,1,-1.099568486213684,3.759323835372925,1.137455862166301,0.320880405818764,4.528259907261308,1.242645386892239,-0.0001295089750783518,0.09166102111339569,0,0,0
291,10260.03927134189,2010-08-18 13:49:54,1080.5309044198618,7,1,-1.099568486213684,3.753981590270996,1.137455862166301,0.330048595637045,4.528259907261308,1.277087235492455,-0.00016188621520996094,0.09166102111339569,0,0,0
292,10290.055407649304,2010-08-18 13:50:24,1110.547040747324,7,1,-1.099568486213684,3.7489633560180664,1.137455862166301,0.339217099763947,4.528259907261308,1.311483000034118,-0.00016188621520996094,0.09166102111339569,0,0,0
293,10320.069786245958,2010-08-18 13:50:54,1140.5614193339554,7,1,-1.099568486213684,3.7439448833465576,1.137455862166301,0.348385047605178,4.528259907261308,1.34583029369698,-0.0001295089750783518,0.09166102111339569,0,0,0
294,10350.085001427644,2010-08-18 13:51:24,1170.5766345156387,7,1,-1.099568486213684,3.739088296890259,1.137455862166301,0.357553303689655,4.528259907261308,1.380133047579724,-9.713172767078504e-05,0.09166102111339569,0,0,0
295,10380.100297119983,2010-08-18 13:51:54,1200.5919302581049,7,1,-1.099568486213684,3.73423171043396,1.137455862166301,0.366721513895812,4.528259907261308,1.414390771417286,-9.713172767078504e-05,0.09166102111339569,0,0,0
296,10410.115329586284,2010-08-18 13:52:24,1230.6069626642557,7,1,-1.0993878841400146,3.729213237762451,1.137455862166301,0.375889605994786,4.528259907261308,1.448603937961875,-0.00016188621520996094,0.09166102111339569,0,0,0
297,10440.130396458331,2010-08-18 13:52:54,1260.622029536306,7,1,-1.099568486213684,3.7245185375213623,1.137455862166301,0.385057720839488,4.528259907261308,1.482774422833163,-0.00019426345534157008,0.09166102111339569,0,0,0
298,10470.145531710808,2010-08-18 13:53:24,1290.6371647988062,7,1,-1.0997490882873535,3.7201476097106934,1.137455862166301,0.394225882166683,4.528259907261308,1.516902490854563,-9.713172767078504e-05,0.09166102111339569,0,0,0
299,10500.160724471614,2010-08-18 13:53:54,1320.6523575545975,7,1,-1.099568486213684,3.7157766819000244,1.137455862166301,0.403394089717883,4.528259907261308,1.550988807446456,-6.47544875391759e-05,0.09166102111339569,0,0,0
300,10530.17589027022,2010-08-18 13:54:25,1350.6675233532037,7,1,-1.099568486213684,3.7110819816589355,1.137455862166301,0.412562273269032,4.528259907261308,1.585033695103989,-9.713172767078504e-05,0.09166102111339569,0,0,0
301,10560.19151488734,2010-08-18 13:54:55,1380.683147970326,7,1,-1.0997490882873535,3.7068729400634766,1.137455862166301,0.42173059601687,4.528259907261308,1.619038569760236,-0.0001295089750783518,0.09166102111339569,0,0,0
302,10590.20653631112,2010-08-18 13:55:25,1410.6981693890928,7,1,-1.0997490882873535,3.7025020122528076,1.137455862166301,0.430898739504196,4.528259907261308,1.653003253810575,-0.0001295089750783518,0.09166102111339569,0,0,0
303,10620.221581880078,2010-08-18 13:55:55,1440.7132149680745,7,1,-1.099568486213684,3.6981310844421387,1.137455862166301,0.440066993412449,4.528259907261308,1.686929056677249,-0.0001295089750783518,0.09166102111339569,0,0,0
304,10650.236737443174,2010-08-18 13:56:25,1470.72837053117,7,1,-1.099568486213684,3.6939220428466797,1.137455862166301,0.449235169738571,4.528259907261308,1.720815435682932,-0.0001295089750783518,0.09166102111339569,0,0,0
305,10680.25180368866,2010-08-18 13:56:55,1500.7434367766589,7,1,-1.0997490882873535,3.6898748874664307,1.137455862166301,0.458403329527512,4.528259907261308,1.754663516479048,-9.713172767078504e-05,0.09166102111339569,0,0,0
306,10710.26697160254,2010-08-18 13:57:25,1530.758604685524,7,1,-1.099568486213684,3.6858277320861816,1.137455862166301,0.467571588103828,4.528259907261308,1.788474303981951,-9.713172767078504e-05,0.09166102111339569,0,0,0
307,10740.282152258174,2010-08-18 13:57:55,1560.7737853511833,7,1,-1.099568486213684,3.6819424629211426,1.137455862166301,0.476739757602103,4.528259907261308,1.822248545128131,-9.713172767078504e-05,0.09166102111339569,0,0,0
308,10770.297330989011,2010-08-18 13:58:25,1590.7889640669823,7,1,-1.099568486213684,3.6780571937561035,1.137455862166301,0.485907986410969,4.528259907261308,1.855987136828428,-9.713172767078504e-05,0.09166102111339569,0,0,0
309,10800.31266500687,2010-08-18 13:58:55,1620.8042980948674,7,1,-1.0997490882873535,3.6741719245910645,1.137455862166301,0.495076288413617,4.528259907261308,1.889690963378629,-9.713172767078504e-05,0.09166102111339569,0,0,0
310,10830.327823843125,2010-08-18 13:59:25,1650.8194569311206,7,1,-1.099568486213684,3.6706106662750244,1.137455862166301,0.504244541741322,4.528259907261308,1.923360364222542,-6.47544875391759e-05,0.09166102111339569,0,0,0
311,10860.34287849973,2010-08-18 13:59:55,1680.8345115827135,7,1,-1.099568486213684,3.6668872833251953,1.137455862166301,0.51341275551543,4.528259907261308,1.956996117453133,-9.713172767078504e-05,0.09166102111339569,0,0,0
312,10890.358055506267,2010-08-18 14:00:25,1710.8496885892532,7,1,-1.099929690361023,3.663325786590576,1.137455862166301,0.522580982500696,4.528259907261308,1.990599062807878,-9.713172767078504e-05,0.09166102111339569,0,0,0
313,10920.37324460294,2010-08-18 14:00:55,1740.8648776909374,7,1,-1.099568486213684,3.660088062286377,1.137455862166301,0.531749294026525,4.528259907261308,2.024170028684626,-3.237724376958795e-05,0.09166102111339569,0,0,0
314,10950.38844784988,2010-08-18 14:01:25,1770.8800809328636,7,1,-1.099568486213684,3.656526565551758,1.137455862166301,0.540917585784959,4.528259907261308,2.057709299531707,-6.47544875391759e-05,0.09166102111339569,0,0,0
315,10980.403593844128,2010-08-18 14:01:55,1800.8952269271108,7,1,-1.0997490882873535,3.6531269550323486,1.137455862166301,0.550085828229442,4.528259907261308,2.091217521222411,-9.713172767078504e-05,0.09166102111339569,0,0,0
316,11010.418787081117,2010-08-18 14:02:25,1830.9104201891637,7,1,-1.0997490882873535,3.6500511169433594,1.137455862166301,0.559254082154449,4.528259907261308,2.124696030652391,-6.47544875391759e-05,0.09166102111339569,0,0,0
317,11040.43397463394,2010-08-18 14:02:55,1860.9256077169252,7,1,-1.099568486213684,3.6464896202087402,1.137455862166301,0.568422294341301,4.528259907261308,2.158145166780655,-0.0001295089750783518,0.09166102111339569,0,0,0
318,11070.449258070736,2010-08-18 14:03:25,1890.9408911537216,7,1,-1.099568486213684,3.643575668334961,1.137455862166301,0.577590457992431,4.528259907261308,2.191564822091531,-0.0001295089750783518,0.09166102111339569,0,0,0
319,11100.464441307806,2010-08-18 14:03:55,1920.9560743958016,7,1,-1.0993878841400146,3.6408236026763916,1.137455862166301,0.586758626337774,4.528259907261308,2.224956499453229,-3.237724376958795e-05,0.09166102111339569,0,0,0
320,11130.479621537375,2010-08-18 14:04:25,1950.971254625374,7,1,-1.0997490882873535,3.6375858783721924,1.137455862166301,0.595926832234025,4.528259907261308,2.258320523015817,-9.713172767078504e-05,0.09166102111339569,0,0,0
321,11160.49470321132,2010-08-18 14:04:55,1980.9863362943024,7,1,-1.099929690361023,3.634671926498413,1.137455862166301,0.605095027832405,4.528259907261308,2.291657395595196,-9.713172767078504e-05,0.09166102111339569,0,0,0
322,11190.509858483689,2010-08-18 14:05:25,2011.0014915716863,7,1,-1.099568486213684,3.6319198608398438,1.137455862166301,0.61426329185114,4.528259907261308,2.324968065347915,-9.713172767078504e-05,0.09166102111339569,0,0,0
323,11220.525063249414,2010-08-18 14:05:55,2041.01669635746,7,1,-1.099568486213684,3.6290059089660645,1.137455862166301,0.623431534451397,4.528259907261308,2.358252594664216,-6.47544875391759e-05,0.09166102111339569,0,0,0
324,11250.540220647084,2010-08-18 14:06:25,2071.031853735078,7,1,-1.0997490882873535,3.626415729522705,1.137455862166301,0.632599739481268,4.528259907261308,2.391511481986968,-6.47544875391759e-05,0.09166102111339569,0,0,0
325,11280.555628739558,2010-08-18 14:06:55,2101.0472618225426,7,1,-1.099568486213684,3.6236636638641357,1.137455862166301,0.641767955644674,4.528259907261308,2.424745764371046,-3.237724376958795e-05,0.09166102111339569,0,0,0
326,11310.57059535674,2010-08-18 14:07:25,2131.062228434714,7,1,-1.099568486213684,3.6210734844207764,1.137455862166301,0.6509360691365,4.528259907261308,2.457955381667764,-3.237724376958795e-05,0.09166102111339569,0,0,0
327,11340.58570952166,2010-08-18 14:07:55,2161.0773426046453,7,1,-1.099568486213684,3.618483304977417,1.137455862166301,0.660104262820434,4.528259907261308,2.491141238817173,-3.237724376958795e-05,0.09166102111339569,0,0,0
328,11370.600937249614,2010-08-18 14:08:25,2191.0925703526477,7,1,-1.0997490882873535,3.6157312393188477,1.137455862166301,0.669272586884292,4.528259907261308,2.524303792442288,-3.237724376958795e-05,0.09166102111339569,0,0,0
329,11400.616148967663,2010-08-18 14:08:55,2221.1077820807245,7,1,-1.099568486213684,3.613464832305908,1.137455862166301,0.678440838172637,4.528259907261308,2.557442782064909,-3.237724376958795e-05,0.09166102111339569,0,0,0
330,11430.631314605873,2010-08-18 14:09:25,2251.122947708905,7,1,-1.099568486213684,3.610712766647339,1.137455862166301,0.687609157076547,4.528259907261308,2.590558966818015,-6.47544875391759e-05,0.09166102111339569,0,0,0
331,11460.646479171402,2010-08-18 14:09:55,2281.138112244363,7,1,-1.099568486213684,3.6082844734191895,1.137455862166301,0.696777403673333,4.528259907261308,2.623651935288015,0.0,0.09166102111339569,0,0,0
332,11490.661653060171,2010-08-18 14:10:25,2311.1532861431565,7,1,-1.099568486213684,3.60585618019104,1.137455862166301,0.705945594568995,4.528259907261308,2.656721496547072,-3.237724376958795e-05,0.09166102111339569,0,0,0
333,11520.676977088136,2010-08-18 14:10:55,2341.168610166106,7,1,-1.0997490882873535,3.6032660007476807,1.137455862166301,0.715113888549769,4.528259907261308,2.689768282536374,-6.47544875391759e-05,0.09166102111339569,0,0,0
334,11550.692142616066,2010-08-18 14:11:25,2371.1837757040626,7,1,-1.0993878841400146,3.6006758213043213,1.137455862166301,0.72428209473331,4.528259907261308,2.722791819772755,-9.713172767078504e-05,0.09166102111339569,0,0,0
335,11580.707205643535,2010-08-18 14:11:55,2401.1988387265183,7,1,-1.0997490882873535,3.598085641860962,1.137455862166301,0.733450305960331,4.528259907261308,2.755792156301261,-9.713172767078504e-05,0.09166102111339569,0,0,0
336,11610.722505596494,2010-08-18 14:12:25,2431.2141386744656,7,1,-1.0993878841400146,3.5956573486328125,1.137455862166301,0.742618596296488,4.528259907261308,2.788769045300801,-6.47544875391759e-05,0.09166102111339569,0,0,0
337,11640.737585395762,2010-08-18 14:12:55,2461.2292184737344,7,1,-1.099568486213684,3.592905282974243,1.137455862166301,0.751786841178374,4.528259907261308,2.821721620556744,-6.47544875391759e-05,0.09166102111339569,0,0,0
338,11670.752746076614,2010-08-18 14:13:25,2491.2443791746355,7,1,-1.0997490882873535,3.590153455734253,1.137455862166301,0.760955138605535,4.528259907261308,2.854650391566129,-9.713172767078504e-05,0.09166102111339569,0,0,0
339,11700.767929769818,2010-08-18 14:13:55,2521.2595628528024,7,1,-1.099568486213684,3.5875632762908936,1.137455862166301,0.770123440177381,4.528259907261308,2.887554663912886,-9.713172767078504e-05,0.09166102111339569,0,0,0
340,11730.783155753425,2010-08-18 14:14:25,2551.2747888614704,7,1,-1.0997490882873535,3.584811210632324,1.137455862166301,0.779291705219899,4.528259907261308,2.920434160140336,-9.713172767078504e-05,0.09166102111339569,0,0,0
341,11760.798315291426,2010-08-18 14:14:55,2581.28994837441,7,1,-1.099568486213684,3.582059144973755,1.137455862166301,0.788459865086094,4.528259907261308,2.953287948348016,-9.713172767078504e-05,0.09166102111339569,0,0,0
342,11790.813598673083,2010-08-18 14:15:25,2611.3052317711063,7,1,-1.099568486213684,3.5791451930999756,1.137455862166301,0.797628172707095,4.528259907261308,2.986116525854166,-0.0001295089750783518,0.09166102111339569,0,0,0
343,11820.82865972563,2010-08-18 14:15:55,2641.320292813628,7,1,-1.0997490882873535,3.5762312412261963,1.137455862166301,0.806796396844902,4.528259907261308,3.018918701759215,-9.713172767078504e-05,0.09166102111339569,0,0,0
344,11850.84385838614,2010-08-18 14:16:25,2671.3354914641104,7,1,-1.0997490882873535,3.573317289352417,1.137455862166301,0.815964649046393,4.528259907261308,3.05169420027457,-9.713172767078504e-05,0.09166102111339569,0,0,0
345,11880.859059603015,2010-08-18 14:16:55,2701.3506926809896,7,1,-1.0997490882873535,3.5704033374786377,1.137455862166301,0.825132843051981,4.528259907261308,3.08444254181063,-6.47544875391759e-05,0.09166102111339569,0,0,0
346,11910.874219005684,2010-08-18 14:17:25,2731.3658520936797,7,1,-1.0997490882873535,3.5673274993896484,1.137455862166301,0.834300995717184,4.528259907261308,3.117163167208659,-9.713172767078504e-05,0.09166102111339569,0,0,0
347,11940.889963095568,2010-08-18 14:17:55,2761.3815961735404,7,1,-1.099568486213684,3.564251661300659,1.137455862166301,0.843469388799169,4.528259907261308,3.14985611327171,-6.47544875391759e-05,0.09166102111339569,0,0,0
348,11970.891778556022,2010-08-18 14:18:25,2791.383411749283,7,1,-1.0997490882873535,3.56101393699646,1.137455862166301,0.852633505499534,4.528259907261308,3.182504578906541,-0.0001295089750783518,0.09166102111339569,0,0,0
349,12000.904220997185,2010-08-18 14:18:55,2821.3958541754064,7,1,-1.0993878841400146,3.5577762126922607,1.137455862166301,0.861800815429168,4.528259907261308,3.215134482157005,-6.47544875391759e-05,0.09166102111339569,0,0,0
350,12030.919323543148,2010-08-18 14:19:25,2851.41095662613,7,1,-1.099568486213684,3.5542147159576416,1.137455862166301,0.870969009653912,4.528259907261308,3.247736798467416,-0.0001295089750783518,0.09166102111339569,0,0,0
351,12060.934490264051,2010-08-18 14:19:55,2881.4261233470343,7,1,-1.099568486213684,3.5506532192230225,1.137455862166301,0.880137221440755,4.528259907261308,3.28030665991238,-9.713172767078504e-05,0.09166102111339569,0,0,0
352,12090.949663395932,2010-08-18 14:20:25,2911.44129648393,7,1,-1.0993878841400146,3.5470917224884033,1.137455862166301,0.889305376397292,4.528259907261308,3.312842875832608,-9.713172767078504e-05,0.09166102111339569,0,0,0
353,12120.964842818494,2010-08-18 14:20:55,2941.4564759014775,7,1,-1.099568486213684,3.5432064533233643,1.137455862166301,0.898473610290359,4.528259907261308,3.345344937024413,-9.713172767078504e-05,0.09166102111339569,0,0,0
354,12150.980038591806,2010-08-18 14:21:25,2971.471671669777,7,1,-1.0997490882873535,3.5389974117279053,1.137455862166301,0.907641856953817,4.528259907261308,3.377811117160251,-0.0001295089750783518,0.09166102111339569,0,0,0
355,12180.99520493176,2010-08-18 14:21:55,3001.486838014744,7,1,-1.0997490882873535,3.5349502563476562,1.137455862166301,0.916810004087143,4.528259907261308,3.41023915720908,-0.0001295089750783518,0.09166102111339569,0,0,0
356,12211.010408399248,2010-08-18 14:22:25,3031.5020415022823,7,1,-1.099568486213684,3.5307412147521973,1.137455862166301,0.925977944229789,4.528259907261308,3.44262779458458,-9.713172767078504e-05,0.09166102111339569,0,0,0
357,12241.025763424466,2010-08-18 14:22:55,3061.5173965325116,7,1,-1.099568486213684,3.5263702869415283,1.137455862166301,0.935145947271947,4.528259907261308,3.474977229305652,-9.713172767078504e-05,0.09166102111339569,0,0,0
358,12271.040975057304,2010-08-18 14:23:25,3091.5326081653507,7,1,-1.099568486213684,3.5218374729156494,1.137455862166301,0.94431390680421,4.528259907261308,3.507285594021646,-9.713172767078504e-05,0.09166102111339569,0,0,0
359,12301.055937373769,2010-08-18 14:23:55,3121.547570451741,7,1,-1.0997490882873535,3.5171427726745605,1.137455862166301,0.953481862125689,4.528259907261308,3.53955206086761,-0.0001295089750783518,0.09166102111339569,0,0,0
360,12331.07111862589,2010-08-18 14:24:25,3151.562751703862,7,1,-1.0997490882873535,3.5122861862182617,1.137455862166301,0.962650108960552,4.528259907261308,3.571776363208026,-0.0001295089750783518,0.09166102111339569,0,0,0
361,12361.086295472029,2010-08-18 14:24:55,3181.577928575064,7,1,-1.099568486213684,3.507429838180542,1.137455862166301,0.971818306848641,4.528259907261308,3.603955400848164,-0.0001295089750783518,0.09166102111339569,0,0,0
362,12391.10163894345,2010-08-18 14:25:25,3211.5932720514975,7,1,-1.099568486213684,3.5020875930786133,1.137455862166301,0.980986662813729,4.528259907261308,3.63608861345078,-0.00016188621520996094,0.09166102111339569,0,0,0
363,12421.116682642749,2010-08-18 14:25:55,3241.6083157457815,7,1,-1.099568486213684,3.4967453479766846,1.137455862166301,0.99015488016822,4.528259907261308,3.668172829374108,-0.00016188621520996094,0.09166102111339569,0,0,0
364,12451.131852621773,2010-08-18 14:26:25,3271.6234857147815,7,1,-1.0997490882873535,3.490755558013916,1.137455862166301,0.999323135002275,4.528259907261308,3.700205218031897,-0.00019426345534157008,0.09166102111339569,0,0,0
365,12481.147022380248,2010-08-18 14:26:56,3301.6386554532064,7,1,-1.099568486213684,3.4844419956207275,1.137455862166301,1.008491349632777,4.528259907261308,3.732181031772903,-0.00019426345534157008,0.09166102111339569,0,0,0
366,12511.162490281788,2010-08-18 14:27:26,3331.6541233597586,7,1,-1.0997490882873535,3.4771571159362793,1.137455862166301,1.017659629798857,4.528259907261308,3.764094257341269,-0.00019426345534157008,0.09166102111339569,0,0,0
367,12541.177533174072,2010-08-18 14:27:56,3361.6691662420185,7,1,-1.099568486213684,3.469386577606201,1.137455862166301,1.026827724234273,4.528259907261308,3.795937992850495,-0.00022664069547317922,0.09166102111339569,0,0,0
368,12571.192568743108,2010-08-18 14:28:26,3391.6842018110524,7,1,-1.0997490882873535,3.4604828357696533,1.137455862166301,1.03599587204504,4.528259907261308,3.827706382149963,-0.0002590179501567036,0.09166102111339569,0,0,0
369,12601.223340085528,2010-08-18 14:28:56,3421.7149731885625,7,1,-1.099568486213684,3.4504458904266357,1.137455862166301,1.045168860669574,4.528259907261308,3.859405240633344,-0.0002913951757363975,0.09166102111339569,0,0,0
370,12631.238550044194,2010-08-18 14:29:26,3451.7301831121413,7,1,-1.0993878841400146,3.4387900829315186,1.137455862166301,1.054337052242154,4.528259907261308,3.890987429969638,-0.0002913951757363975,0.09166102111339569,0,0,0
371,12661.253733511838,2010-08-18 14:29:56,3481.7453665797834,7,1,-1.099568486213684,3.424058675765991,1.137455862166301,1.063505258328416,4.528259907261308,3.922449363000064,-0.00045328139094635844,0.09166102111339569,0,0,0
372,12691.268930964334,2010-08-18 14:30:26,3511.76056405233,7,1,-1.0997490882873535,3.4059274196624756,1.137455862166301,1.072673447548263,4.528259907261308,3.953762629045308,-0.0005504131549969316,0.09166102111339569,0,0,0
373,12721.284103168904,2010-08-18 14:30:56,3541.7757362368516,7,1,-1.0997490882873535,3.3813207149505615,1.137455862166301,1.081841693340673,4.528259907261308,3.984881689814428,-0.000744676566682756,0.09166102111339569,0,0,0
374,12751.299400720882,2010-08-18 14:31:26,3571.7910337988524,7,1,-1.0993878841400146,3.346515417098999,1.137455862166301,1.091009950293449,4.528259907261308,4.015730888786099,-0.0010360240703448653,0.09166102111339569,0,0,0
375,12781.31446559796,2010-08-18 14:31:56,3601.8060986659057,7,1,-1.099568486213684,3.297787666320801,1.137455862166301,1.100178145302731,4.528259907261308,4.046199836858351,-0.0014569759368896484,0.09166102111339569,0,0,0
376,12811.329639586978,2010-08-18 14:32:26,3631.8212726649494,7,1,-1.099568486213684,3.231900215148926,1.137455862166301,1.109346374523764,4.528259907261308,4.076147932266165,-0.002007388975471258,0.09166102111339569,0,0,0
377,12841.34483879886,2010-08-18 14:32:56,3661.8364718668063,7,1,-1.099568486213684,3.1428630352020264,1.137455862166301,1.118514572952769,4.528259907261308,4.105392222247615,-0.002752065658569336,0.09166102111339569,0,0,0
378,12871.359998467187,2010-08-18 14:33:26,3691.8516315351335,7,1,-1.099568486213684,3.0136783123016357,1.137455862166301,1.127682853600431,4.528259907261308,4.133657349301918,-0.004176616668701172,0.09166102111339569,0,0,0
379,12896.406519088196,2010-08-18 14:33:51,3716.898152156143,7,1,-1.0997490882873535,2.8135874271392822,1.137455862166301,1.135333383551189,4.528259907261308,4.156060617993172,-0.009454155340790749,0.09166102111339569,0,0,0
380,12903.437652526149,2010-08-18 14:33:58,3723.929285594096,7,1,-1.099568486213684,2.699943780899048,1.137455862166301,1.137481036213378,4.528259907261308,4.161989137907726,-0.013986920937895775,0.09166102111339569,0,0,0
381,12963.453035329949,2010-08-18 14:34:58,60.014499022563925,8,1,0.0,3.2503552436828613,1.137455862166301,1.137481036213378,4.528259907261308,4.161989137907726,0.0012303352123126388,0.09166102111339569,0,0,0
382,12963.643856958144,2010-08-18 14:34:58,0.190048088312409,9,1,-1.9243103452026844e-05,3.2503552436828613,1.137455862166301,1.137481037229243,4.528259907261308,4.161989141209649,0.0,0.08979491144418716,0,0,0
383,12968.469390738104,2010-08-18 14:35:03,5.015581888321663,9,1,0.0008838032954372466,3.2579638957977295,1.137456760812122,1.137481037299766,4.528262832120715,4.161989141438872,0.0010684489971026778,0.08979491144418716,0,0,0
